t px py theta vx vy omega ax ay alpha 
0.0001 0.2621631367 -0.03031067139 -1.539555536e-05 -0.009324159723 0.01083647721 -0.3076197027 -105.0013748 122.0386508 -3464.281834
0.0002 0.2621616457 -0.03030893849 -6.458708416e-05 -0.02330687624 0.02708979377 -0.7689769883 -233.0136935 270.8760656 -7688.640267
0.0003 0.2621584528 -0.03030522696 -0.0001699387602 -0.03727893292 0.04333887635 -1.230115616 -13.75380014 16.09740907 -455.6016685
0.0004 0.2621544993 -0.03030063019 -0.0003004045516 -0.04192199218 0.0487495598 -1.383535323 -44.30688209 51.65929344 -1464.468843
0.0005 0.2621500766 -0.03029548637 -0.0004463791989 -0.04655910676 0.05415788135 -1.536833117 -50.7651665 59.2187689 -1678.414979
0.0006 0.2621452015 -0.03028981473 -0.0006073118885 -0.05118970415 0.05956361318 -1.689997269 -110.2961277 128.5426484 -3644.683568
0.0007 0.2621400463 -0.03028381517 -0.0007775246477 -0.05407508034 0.06294266647 -1.785609905 -870.5897962 1013.582196 -28751.40342
0.0008 0.2621261526 -0.03026763556 -0.001236430964 -0.2262720157 0.2636222383 -7.475708343 -1637.731673 1912.056045 -54173.45643
0.0009 0.2620951363 -0.03023146197 -0.002261778042 -0.3933750051 0.4592605282 -13.01210658 -1638.538532 1925.069265 -54397.45124
0.001 0.262047687 -0.03017597734 -0.003832753089 -0.5545919344 0.6495419026 -18.37859063 -1580.020369 1874.704859 -52755.80691
0.0011 0.2619844391 -0.03010174331 -0.005931303666 -0.7092241219 0.8341868314 -23.5608986 -1511.290963 1817.402078 -50859.01965
0.0012 0.2619060825 -0.03000933678 -0.008538361507 -0.8566717742 1.012953762 -28.54684129 -1436.792935 1757.553133 -48841.7847
0.0013 0.2618133615 -0.02989935605 -0.01163376755 -0.9964369268 1.185640127 -33.32636747 -1357.834501 1695.883219 -46735.03928
0.0014 0.2617070651 -0.02977241769 -0.01519646705 -1.128123579 1.35208234 -37.89156764 -1275.419788 1632.770008 -44559.77746
0.0015 0.2615880167 -0.0296291527 -0.01920471972 -1.251435401 1.51215493 -42.23662465 -1190.526794 1568.587666 -42336.51657
0.0016 0.2614570646 -0.02947020278 -0.02363630361 -1.366171383 1.665768926 -46.35771914 -1104.007436 1503.601403 -40082.13629
0.0017 0.2613150727 -0.0292962168 -0.02846871043 -1.472219805 1.812869654 -50.25289836 -1016.868095 1438.321214 -37819.5607
0.0018 0.2611629119 -0.0291078475 -0.03367932242 -1.569550973 1.953434082 -53.92191825 -929.8149476 1372.959061 -35562.50116
0.0019 0.2610014523 -0.02890574844 -0.0392455763 -1.658209098 2.08746786 -57.36606686 -843.5445737 1307.786287 -33325.35729
0.002 0.2608315562 -0.02869057133 -0.04514510646 -1.738303706 2.215002191 -60.58797806 -758.6664476 1243.042488 -31120.64035
0.0021 0.2606540721 -0.02846296362 -0.05135586936 -1.810000915 2.336090648 -63.59144254 -675.6353736 1178.848262 -28956.60336
0.0022 0.2604698294 -0.02822356638 -0.05785625154 -1.873514817 2.450806031 -66.38122171 -595.0256275 1115.555534 -26846.82424
0.0023 0.260279634 -0.02797301262 -0.06462515583 -1.929099236 2.559237349 -68.96287014 -517.1258966 1053.224097 -24795.97958
0.0024 0.2600842649 -0.0277119257 -0.07164207389 -1.977039973 2.661486982 -71.34256905 -442.2192454 991.9741531 -22809.55034
0.0025 0.259884471 -0.02744091822 -0.07888714043 -2.017647684 2.757668059 -73.52697412 -370.4897649 931.8583913 -20890.43625
0.0026 0.2596809806 -0.02716060664 -0.08634075918 -2.050847755 2.847339118 -75.50817189 -292.5787271 859.560089 -18687.95147
0.0027 0.2594745575 -0.02687169367 -0.09398145013 -2.076394557 2.929752747 -77.27069917 -219.0864333 788.9947257 -16577.68513
0.0028 0.2592659401 -0.02657488955 -0.1017879876 -2.094808895 3.005191033 -78.82662659 -149.9330935 720.0577693 -14555.92747
0.0029 0.2590558195 -0.02627088309 -0.1097401678 -2.106531831 3.073827829 -80.18504073 -85.23013044 652.9327934 -12626.34145
0.003 0.2588448429 -0.02596034593 -0.1178186835 -2.111998828 3.135833661 -81.35480297 -24.84336641 587.4953786 -10784.08188
0.0031 0.2586336144 -0.02564393241 -0.1260051116 -2.11164217 3.191383324 -82.3447097 31.28139715 523.7732681 -9027.949869
0.0032 0.2584226951 -0.02532227969 -0.1342818899 -2.105882202 3.24064637 -83.16321547 83.22738547 461.7823509 -7356.17761
0.0033 0.258212605 -0.02499600807 -0.1426322893 -2.095127238 3.28378944 -83.81847344 131.2042909 401.3676455 -5762.437213
0.0034 0.2580038236 -0.02466572121 -0.1510403826 -2.079772694 3.320977059 -84.3183411 175.2554252 342.6497007 -4247.345958
0.0035 0.2577967917 -0.02433200677 -0.1594910043 -2.060197684 3.352367802 -84.67027417 215.6401851 285.4223114 -2803.12744
0.0036 0.2575919131 -0.02399543653 -0.1679697228 -2.036766523 3.378117794 -84.88141153 252.4263253 229.7942301 -1429.983627
0.0037 0.2573895559 -0.02365656717 -0.1764627945 -2.009824748 3.398374831 -84.95842757 285.8568655 175.5937546 -121.0537637
0.0038 0.2571900546 -0.02331594069 -0.1849571281 -1.979702186 3.413283674 -84.90766949 316.0800784 122.8054377 1126.530416
0.0039 0.2569937116 -0.02297408496 -0.1934402462 -1.946710925 3.422982728 -84.73507994 343.2462956 71.41167243 2315.63436
0.004 0.2568007987 -0.02263151424 -0.2019002474 -1.9111459 3.427604744 -84.44622306 367.5918402 21.24001691 3452.865089
0.0041 0.2566115594 -0.02228872992 -0.210325766 -1.873284728 3.427276036 -84.04627514 389.1974707 -27.61257512 4538.064139
0.0042 0.25642621 -0.02194622084 -0.2187059405 -1.833389298 3.422118762 -83.54009152 408.3114088 -75.35555496 5578.513729
0.0043 0.2562449416 -0.02160446407 -0.2270303735 -1.791704929 3.412248675 -82.93216268 425.0106413 -121.8933303 6573.895033
0.0044 0.2560679215 -0.02126392538 -0.2352890996 -1.748460896 3.397775206 -82.22662864 439.4906012 -167.3573067 7529.324819
0.0045 0.2558952947 -0.02092505973 -0.2434725557 -1.703872479 3.378804523 -81.42736511 451.9378534 -211.8764149 8449.710833
0.0046 0.2557271856 -0.02058831195 -0.2515715452 -1.658138824 3.3554344 -80.5378716 462.4195227 -255.3552912 9334.421308
0.0047 0.2555636993 -0.02025411718 -0.2595772113 -1.611446153 3.327759529 -79.5614116 471.1475895 -297.9946512 10189.84644
0.0048 0.2554049229 -0.01992290142 -0.2674810077 -1.563966435 3.295867902 -78.50093731 478.1824864 -339.6991311 11015.15097
0.0049 0.2552509272 -0.01959508209 -0.2752746714 -1.515859697 3.259844576 -77.35919093 483.7219899 -380.6658639 11816.38586
0.005 0.2551017674 -0.01927106849 -0.2829501981 -1.467272098 3.219766657 -76.138596 487.7541471 -420.6552476 12589.11173
0.0051 0.2549574551 -0.01895119604 -0.2905013782 -1.419399132 3.178095844 -74.89760164 465.579182 -403.1789043 12007.02188
0.0052 0.2548178077 -0.01863537336 -0.2979320518 -1.373895436 3.138640667 -73.72513601 444.7377852 -386.0834162 11448.17821
0.0053 0.2546826086 -0.01832341167 -0.3052482296 -1.33041326 3.100867942 -72.60728972 425.1207712 -369.4954774 10913.64195
0.0054 0.2545516616 -0.01801514526 -0.3124552539 -1.288833948 3.064727153 -71.5416906 406.6424836 -353.3828215 10401.62148
0.0055 0.254424782 -0.0177104132 -0.3195582411 -1.249047905 3.030172983 -70.52618657 389.2400872 -337.7513652 9911.318277
0.0056 0.2543017956 -0.01740905901 -0.3265620985 -1.210952608 2.997162195 -69.55876288 372.8279879 -322.5390365 9440.4352
0.0057 0.2541825382 -0.01711093046 -0.3334715386 -1.174452532 2.965654792 -68.63756091 357.3284492 -307.6868462 8986.836698
0.0058 0.2540668549 -0.01681587915 -0.3402910947 -1.13945744 2.935611016 -67.76080098 342.6971013 -293.2074453 8550.117793
0.0059 0.2539545993 -0.01652376049 -0.34702513 -1.105883539 2.906995335 -66.92686811 328.9067355 -279.1492635 8130.754624
0.006 0.2538456334 -0.01623443347 -0.3536778486 -1.073651876 2.879773479 -66.13423735 315.8553858 -265.355677 7724.554308
0.0061 0.2537398266 -0.01594776028 -0.3602533098 -1.04268818 2.853912967 -65.38148063 303.5249538 -251.8785668 7332.183099
0.0062 0.2536370557 -0.01566360633 -0.3667554336 -1.012922485 2.829382974 -64.66725886 291.8984796 -238.7699141 6954.339636
0.0063 0.2535372043 -0.01538184012 -0.3731880085 -0.9842887898 2.806154198 -63.9903147 280.888879 -225.8791403 6587.130536
0.0064 0.2534401623 -0.01510233291 -0.3795547029 -0.9567247199 2.784198737 -63.34946566 270.4861445 -213.2609171 6231.397678
0.0065 0.2533458256 -0.01482495866 -0.3858590711 -0.93017125 2.763489982 -62.74359823 260.6806416 -200.9697478 5887.998642
0.0066 0.2532540961 -0.01454959405 -0.392104557 -0.9045724524 2.744002525 -62.17166263 251.3970739 -188.8599708 5553.273473
0.0067 0.253164881 -0.01427611812 -0.3982945048 -0.8798752417 2.725712055 -61.63266755 242.631139 -176.9881924 5228.188323
0.0068 0.2530780927 -0.01400441239 -0.4044321601 -0.8560289657 2.70859463 -61.12566111 234.3678431 -165.3775697 4912.966272
0.0069 0.2529936484 -0.01373436062 -0.4105206786 -0.8329860355 2.692629234 -60.64978624 226.5729936 -153.9857891 4606.374323
0.007 0.2529114702 -0.01346584873 -0.4165631298 -0.8107004799 2.677793742 -60.20418735 219.2148731 -142.7715932 4307.227725
0.0071 0.2528314845 -0.0131987648 -0.4225625007 -0.7891284384 2.664066849 -59.78805216 212.2837154 -131.7601595 4015.85667
0.0072 0.252753622 -0.01293299889 -0.4285217013 -0.7682285695 2.651429965 -59.40065227 205.7799136 -121.0093666 3733.337077
0.0073 0.2526778177 -0.01266844304 -0.4344435667 -0.7479605571 2.639862586 -59.04123773 199.6477995 -110.3820999 3456.387252
0.0074 0.2526040101 -0.01240499116 -0.4403308627 -0.7282865023 2.629347454 -58.70915124 193.8908413 -99.93751541 3186.143661
0.0075 0.2525321418 -0.01214253899 -0.4461862878 -0.7091693203 2.619865322 -58.40370954 188.4765328 -89.60548991 2920.861899
0.0076 0.2524621448 -0.01188093094 -0.4520136584 -0.6910770844 2.613314678 -58.16691368 171.5783213 -33.80583908 1647.166547
0.0077 0.2523938687 -0.01161967579 -0.4578242196 -0.6746955078 2.61269662 -58.0649168 156.327029 21.28167226 397.6889957
0.0078 0.2523271573 -0.01135820873 -0.4636307776 -0.6597575292 2.617538598 -58.0864065 142.6938348 75.41668781 -823.1558765
0.0079 0.2522618741 -0.01109598802 -0.4694455498 -0.6461058136 2.627755586 -58.22877716 130.5995747 128.7706957 -2019.776857
0.008 0.2521978982 -0.01083248032 -0.4752804987 -0.6335865329 2.643264171 -58.4895162 120.031694 181.2874595 -3191.471163
0.0081 0.2521351239 -0.01056716068 -0.4811473364 -0.6220480399 2.663980214 -58.86614754 110.9839189 232.9074872 -4337.431286
0.0082 0.2520734607 -0.01029951254 -0.4870575314 -0.6113406949 2.689820954 -59.35627461 103.4132064 283.7557174 -5460.893855
0.0083 0.2520128328 -0.0100290276 -0.4930223143 -0.6013155564 2.720702108 -59.95751336 97.32791239 333.7647017 -6560.817579
0.0084 0.2519531796 -0.009755206029 -0.4990526793 -0.5918241978 2.756539404 -60.6675242 92.74071299 382.8645167 -7636.09787
0.0085 0.2518944549 -0.009477556427 -0.5051593881 -0.5827181093 2.797248236 -61.48400316 89.62933395 431.1683841 -8689.65393
0.0086 0.2518366279 -0.009195595995 -0.5113529715 -0.5738478023 2.842741514 -62.40463399 88.02932075 478.5386625 -9718.883146
0.0087 0.2517796823 -0.008908850658 -0.5176437303 -0.5650628893 2.892931857 -63.42713679 87.92906761 525.0821091 -10726.55954
0.0088 0.2517236174 -0.008616855205 -0.5240417367 -0.5562111895 2.947728887 -64.54920922 89.35853108 570.7181438 -11711.35353
0.0089 0.2516684473 -0.008319153473 -0.5305568347 -0.5471388852 3.007041457 -65.76857693 92.34908356 615.3649898 -12671.93281
0.009 0.251614202 -0.00801529868 -0.5371986374 -0.5376897826 3.07077501 -67.08293778 96.90082846 659.1216277 -13610.94387
0.0091 0.251560927 -0.007704853457 -0.543976531 -0.5277054169 3.13883323 -68.49000047 103.050106 701.9025414 -14527.023
0.0092 0.251508684 -0.00738739028 -0.5508996706 -0.5170248602 3.21111788 -69.98748417 110.8330977 743.6217867 -15418.83665
0.0093 0.2514575506 -0.007062491565 -0.5579769831 -0.5054842714 3.287526861 -71.57307966 120.2575396 784.3724563 -16288.99394
0.0094 0.2514076212 -0.006729750026 -0.5652171661 -0.4929171994 3.367956507 -73.24450352 131.3620497 824.0661015 -17136.18665
0.0095 0.2513590069 -0.006388768966 -0.5726286866 -0.4791541491 3.452299098 -74.99944851 144.1835475 862.614677 -17959.1689
0.0096 0.2513118358 -0.00603916258 -0.5802197822 -0.4640228375 3.540444589 -76.83562602 158.7340131 900.107108 -18760.59167
0.0097 0.2512662536 -0.005680556156 -0.587998463 -0.4473481698 3.632280529 -78.75076974 175.0545062 936.42461 -19538.64697
0.0098 0.2512224235 -0.00531258645 -0.5959725118 -0.4289521225 3.727690858 -80.74261503 193.1690837 971.5664208 -20294.1496
0.0099 0.2511805265 -0.004934902007 -0.6041494852 -0.4086538311 3.826555896 -82.80890494 213.1019821 1005.53113 -21027.95988
0.01 0.2511407622 -0.004547163409 -0.612536717 -0.3862698073 3.928753508 -84.94742163 234.9116557 1037.970934 -21733.51079
0.0101 0.2511033595 -0.00414916994 -0.6211385917 -0.3612167714 4.029603769 -87.05759866 267.502493 960.7686431 -20077.54222
0.0102 0.2510686268 -0.003741534235 -0.6299419999 -0.3329357792 4.121849894 -88.98375861 297.7320142 884.4331822 -18453.84205
0.0103 0.2510368694 -0.003325052992 -0.638929983 -0.3017477123 4.2065348 -90.74974533 325.6422623 809.4452597 -16871.82119
0.0104 0.2510083664 -0.002900476012 -0.648086722 -0.2678866578 4.283786785 -92.3595495 351.1826069 735.7997341 -15330.59075
0.0105 0.2509833732 -0.002468539897 -0.6573968005 -0.2315915153 4.353740048 -93.81720568 374.3168761 663.5110409 -13829.5717
0.0106 0.2509621212 -0.002029967717 -0.6668452037 -0.1931041571 4.416531517 -95.12671336 395.0236544 592.5855377 -12367.91749
0.0107 0.2509448174 -0.001585468619 -0.6764173163 -0.1526680179 4.472301681 -96.29204648 413.2929629 523.0773511 -10945.73445
0.0108 0.2509316445 -0.0011357376 -0.6860989176 -0.1105267231 4.521193798 -97.31712947 429.1293385 455.0048788 -9562.300054
0.0109 0.2509227608 -0.000681455307 -0.6958761738 -0.0669228507 4.563351517 -98.2057811 442.548183 388.3798064 -8216.704983
0.011 0.2509183007 -0.0002232879031 -0.7057356299 -0.02209695779 4.598919889 -98.96173272 453.5746356 323.2075178 -6907.876604
0.0111 0.2509183743 0.0002381129551 -0.7156641981 0.02371333895 4.628044754 -99.58861306 462.2422307 259.4876721 -5634.604911
0.0112 0.2509230683 0.0007021101315 -0.7256491458 0.07027413342 4.650870581 -100.0899008 468.5921603 197.2685876 -4396.724968
0.0113 0.2509324464 0.001168080969 -0.7356780834 0.1173558681 4.667541609 -100.4689496 472.6697758 136.432629 -3190.509152
0.0114 0.2509465494 0.001635417165 -0.7457389489 0.1647339024 4.678201395 -100.7289797 474.5268562 77.01953983 -2015.634421
0.0115 0.2509653957 0.002103524641 -0.7558199937 0.2121889188 4.682990822 -100.873037 474.2187606 19.01148065 -870.5646919
0.0116 0.2509889825 0.00257182339 -0.7659097678 0.2595073563 4.682049872 -100.9040346 471.8043398 -37.61287177 246.2776278
0.0117 0.2510172857 0.00303974724 -0.7759971034 0.3064816156 4.675515193 -100.824704 467.3448354 -92.87770898 1336.492628
0.0118 0.2510502606 0.003506743547 -0.7860710975 0.352910349 4.663521406 -100.637627 460.9035995 -146.8099756 2401.694897
0.0119 0.251087843 0.003972273053 -0.7961210988 0.3985986728 4.646200824 -100.345235 452.547782 -199.4134178 3442.948463
0.012 0.2511299493 0.004435809492 -0.8061366889 0.4433581632 4.623681685 -99.94977557 442.3414893 -250.7454544 4462.42281
0.0121 0.2511764775 0.004896839354 -0.8161076682 0.4870070644 4.596089497 -99.45334719 430.3486643 -300.8648565 5462.262131
0.0122 0.2512273078 0.005354861479 -0.8260240384 0.5293703639 4.563546842 -98.85790061 416.6386762 -349.7811817 6443.487682
0.0123 0.251282303 0.005809386757 -0.8358759878 0.5702796626 4.526171692 -98.16520855 401.278711 -397.531091 7407.645387
0.0124 0.2513413097 0.006259937683 -0.845653874 0.6095733363 4.484078787 -97.37690169 384.3360954 -444.1527272 8356.249917
0.0125 0.2514041585 0.006706048093 -0.8553482117 0.6470965682 4.43737948 -96.49447174 365.8962078 -489.5618952 9288.090421
0.0126 0.2514706735 0.00714731783 -0.8649508566 0.6830157372 4.388166774 -95.56252477 353.7530844 -486.6741402 9177.038606
0.0127 0.2515407241 0.00758370625 -0.8744614108 0.7178005421 4.339650558 -94.65036203 341.974893 -483.7348994 9068.732505
0.0128 0.2516141948 0.008015257386 -0.8838812757 0.751419503 4.291419623 -93.74864298 330.442391 -480.9137037 8966.945372
0.0129 0.25169097 0.00844199931 -0.8932114664 0.783896887 4.243464854 -92.8567817 319.1463493 -478.1817142 8870.901023
0.013 0.2517709368 0.008863959207 -0.9024529405 0.8152556948 4.195777549 -91.97421556 308.0698022 -475.5589715 8780.900806
0.0131 0.2518539846 0.009281163399 -0.9116066 0.8455177328 4.148349392 -91.10040374 297.2054244 -473.0174362 8696.202895
0.0132 0.2519400045 0.009693637399 -0.9206732943 0.8747036823 4.101172428 -90.23482583 286.547358 -470.5298428 8616.086847
0.0133 0.2520288901 0.01010140598 -0.9296538224 0.9028332712 4.054239513 -89.37699099 276.0754271 -468.1405895 8541.415078
0.0134 0.2521205365 0.0105044931 -0.9385489325 0.9299249071 4.007542409 -88.52639513 265.790056 -465.7990844 8470.968183
0.0135 0.252214841 0.01090292208 -0.9473593269 0.9559964758 3.961075063 -87.68259271 255.6714728 -463.5496299 8405.623556
0.0136 0.2523117024 0.01129671548 -0.9560856609 0.9810646436 3.914830295 -86.84512287 245.716153 -461.3658027 8344.705614
0.0137 0.252411021 0.01168589526 -0.9647285461 1.005145337 3.868801662 -86.01355013 235.9158552 -459.2450165 8288.069365
0.0138 0.252512699 0.01207048271 -0.9732885513 1.02825368 3.822982973 -85.18745309 226.2751471 -457.1388474 8234.553486
0.0139 0.2526166398 0.01245049856 -0.9817662036 1.050404035 3.777368272 -84.36642361 216.7622526 -455.1372191 8186.081764
0.014 0.2527227483 0.01282596291 -0.9901619903 1.071610048 3.731951828 -83.55006605 207.3821821 -453.1917376 8141.504875
0.0141 0.2528309308 0.01319689532 -0.9984763591 1.091884814 3.686728572 -82.73800677 198.1283686 -451.3004137 8100.708717
0.0142 0.2529410946 0.01356331478 -1.00670972 1.111240383 3.641692273 -81.92985277 189.0012583 -449.4387142 8063.07715
0.0143 0.2530531486 0.0139252398 -1.014862447 1.12968873 3.596838696 -81.1252622 179.9884804 -447.6276755 8029.018069
0.0144 0.2531670025 0.01428268837 -1.022934878 1.147240843 3.552162426 -80.32387277 171.077104 -445.8878429 7998.938002
0.0145 0.2532825672 0.01463567798 -1.030927315 1.163907293 3.507658666 -79.52534176 162.2686402 -444.1950948 7972.238404
0.0146 0.2533997547 0.01498422564 -1.038840029 1.179698127 3.463322775 -78.72933543 153.5580054 -442.5479271 7948.832189
0.0147 0.253518478 0.01532834792 -1.046673255 1.194622896 3.419150258 -77.93552852 144.9480567 -440.9229569 7928.135925
0.0148 0.2536386507 0.01566806093 -1.054427196 1.208690685 3.375136756 -77.14360385 136.4268584 -439.3410387 7910.573936
0.0149 0.2537601878 0.01600338039 -1.062102027 1.221910293 3.331278475 -76.35326183 127.982156 -437.8227248 7896.570507
0.015 0.2538830047 0.01633432156 -1.069697889 1.234289619 3.287570432 -75.56418026 119.6336692 -436.3014834 7884.557371
0.0151 0.2540070235 0.01666091385 -1.077215229 1.246039116 3.244533051 -74.78816152 116.2343603 -422.3667285 7587.717134
0.0152 0.2541322036 0.01698327836 -1.084656599 1.25751132 3.20298399 -74.04408579 113.2813216 -408.6455316 7294.274824
0.0153 0.2542585167 0.01730155607 -1.09202502 1.268707304 3.162792278 -73.32908663 110.7041365 -395.2268553 7006.336999
0.0154 0.2543859372 0.01761588139 -1.099323375 1.279665478 3.123931946 -72.64271655 108.5143929 -382.0379251 6722.145059
0.0155 0.2545144432 0.01792638621 -1.106554508 1.290423276 3.086378699 -71.98457411 106.6998059 -369.0711578 6441.446087
0.0156 0.2546440164 0.0182332 -1.113721221 1.301016369 3.050107735 -71.35425315 105.2307478 -356.361416 6164.985395
0.0157 0.2547746422 0.0185364499 -1.120826278 1.311479976 3.015096676 -70.75141053 104.1048421 -343.8804426 5892.039801
0.0158 0.2549063092 0.01883626069 -1.12787241 1.321847516 2.981322145 -70.17568605 103.3115033 -331.621479 5622.391051
0.0159 0.2550390097 0.01913275499 -1.134862313 1.332152124 2.948763092 -69.62678011 102.8410428 -319.5782859 5355.832792
0.016 0.2551727387 0.01942605325 -1.141798653 1.342425438 2.917397826 -69.10438374 102.6842537 -307.7448663 5092.167921
0.0161 0.2553074948 0.01971627381 -1.148684067 1.352698393 2.887205652 -68.60821707 102.8325948 -296.1155983 4831.208891
