t px py theta vx vy omega ax ay alpha 
0 0.0005099019203 0.007735849194 0 0 0 0 0 0 0
1e-05 0.0005099027862 0.007735849194 0 0.000173174 0 0 17.3854 0 0
2e-05 0.0005099053906 0.007735849194 0 0.000347708 0 0 17.52115 0 0
3e-05 0.0005099097471 0.007735849194 0 0.000523597 0 0 17.6562 0 0
4e-05 0.0005099158692 0.007735849194 0 0.000700832 0 0 17.79055 0 0
5e-05 0.0005099237704 0.007735849194 0 0.000879408 0 0 17.9244 0 0
6e-05 0.0005099334641 0.007735849194 0 0.00105932 0 0 18.0571 0 0
7e-05 0.0005099449634 0.007735849194 0 0.00124055 0 0 18.1895 0 0
8e-05 0.0005099582817 0.007735849194 0 0.00142311 0 0 18.3215 0 0
9e-05 0.0005099734322 0.007735849194 0 0.00160698 0 0 18.452 0 0
0.0001 0.0005099904278 0.007735849194 0 0.00179215 0 0 18.582 0 0
0.00011 0.0005100092817 0.007735849194 0 0.00197862 0 0 18.712 0 0
0.00012 0.0005100300067 0.007735849194 0 0.00216639 0 0 18.841 0 0
0.00013 0.0005100526159 0.007735849194 0 0.00235544 0 0 18.969 0 0
0.00014 0.0005100771219 0.007735849194 0 0.00254577 0 0 19.0965 0 0
0.00015 0.0005101035376 0.007735849194 0 0.00273737 0 0 19.223 0 0
0.00016 0.0005101318756 0.007735849194 0 0.00293023 0 0 19.3495 0 0
0.00017 0.0005101621486 0.007735849194 0 0.00312436 0 0 19.475 0 0
0.00018 0.000510194369 0.007735849194 0 0.00331973 0 0 19.5995 0 0
0.00019 0.0005102285494 0.007735849194 0 0.00351635 0 0 19.724 0 0
0.0002 0.0005102647022 0.007735849194 0 0.00371421 0 0 19.8475 0 0
0.00021 0.0005103028398 0.007735849194 0 0.0039133 0 0 19.97 0 0
0.00022 0.0005103429743 0.007735849194 0 0.00411361 0 0 20.0915 0 0
0.00023 0.000510385118 0.007735849194 0 0.00431513 0 0 20.213 0 0
0.00024 0.000510429283 0.007735849194 0 0.00451787 0 0 20.334 0 0
0.00025 0.0005104754814 0.007735849194 0 0.00472181 0 0 20.454 0 0
0.00026 0.0005105237252 0.007735849194 0 0.00492695 0 0 20.573 0 0
0.00027 0.0005105740263 0.007735849194 0 0.00513327 0 0 20.6915 0 0
0.00028 0.0005106263966 0.007735849194 0 0.00534078 0 0 20.81 0 0
0.00029 0.0005106808478 0.007735849194 0 0.00554947 0 0 20.927 0 0
0.0003 0.0005107373918 0.007735849194 0 0.00575932 0 0 21.0435 0 0
0.00031 0.0005107960401 0.007735849194 0 0.00597034 0 0 21.1595 0 0
0.00032 0.0005108568043 0.007735849194 0 0.00618251 0 0 21.2745 0 0
0.00033 0.000510919696 0.007735849194 0 0.00639583 0 0 21.389 0 0
0.00034 0.0005109847266 0.007735849194 0 0.00661029 0 0 21.5025 0 0
0.00035 0.0005110519075 0.007735849194 0 0.00682588 0 0 21.616 0 0
0.00036 0.0005111212499 0.007735849194 0 0.00704261 0 0 21.7285 0 0
0.00037 0.0005111927652 0.007735849194 0 0.00726045 0 0 21.84 0 0
0.00038 0.0005112664645 0.007735849194 0 0.00747941 0 0 21.951 0 0
0.00039 0.0005113423589 0.007735849194 0 0.00769947 0 0 22.0615 0 0
0.0004 0.0005114204595 0.007735849194 0 0.00792064 0 0 22.1715 0 0
0.00041 0.0005115007772 0.007735849194 0 0.0081429 0 0 22.28 0 0
0.00042 0.0005115833229 0.007735849194 0 0.00836624 0 0 22.3885 0 0
0.00043 0.0005116681074 0.007735849194 0 0.00859067 0 0 22.4965 0 0
0.00044 0.0005117551416 0.007735849194 0 0.00881617 0 0 22.603 0 0
0.00045 0.0005118444361 0.007735849194 0 0.00904273 0 0 22.7095 0 0
0.00046 0.0005119360016 0.007735849194 0 0.00927036 0 0 22.815 0 0
0.00047 0.0005120298485 0.007735849194 0 0.00949903 0 0 22.9195 0 0
0.00048 0.0005121259874 0.007735849194 0 0.00972875 0 0 23.024 0 0
0.00049 0.0005122244287 0.007735849194 0 0.00995951 0 0 23.1275 0 0
0.0005 0.0005123251828 0.007735849194 0 0.0101913 0 0 23.2295 0 0
0.00051 0.0005124282598 0.007735849194 0 0.0104241 0 0 23.335 0 0
0.00052 0.0005125336703 0.007735849194 0 0.010658 0 0 23.435 0 0
0.00053 0.0005126414243 0.007735849194 0 0.0108928 0 0 23.535 0 0
0.00054 0.0005127515318 0.007735849194 0 0.0111287 0 0 23.635 0 0
0.00055 0.0005128640028 0.007735849194 0 0.0113655 0 0 23.73 0 0
0.00056 0.0005129788468 0.007735849194 0 0.0116033 0 0 23.835 0 0
0.00057 0.0005130960743 0.007735849194 0 0.0118422 0 0 23.935 0 0
0.00058 0.0005132156953 0.007735849194 0 0.012082 0 0 24.025 0 0
0.00059 0.0005133377188 0.007735849194 0 0.0123227 0 0 24.125 0 0
0.0006 0.0005134621548 0.007735849194 0 0.0125645 0 0 24.225 0 0
0.00061 0.0005135890133 0.007735849194 0 0.0128072 0 0 24.315 0 0
0.00062 0.0005137183033 0.007735849194 0 0.0130508 0 0 24.41 0 0
0.00063 0.0005138500343 0.007735849194 0 0.0132954 0 0 24.505 0 0
0.00064 0.0005139842158 0.007735849194 0 0.0135409 0 0 24.595 0 0
0.00065 0.0005141208568 0.007735849194 0 0.0137873 0 0 24.69 0 0
0.00066 0.0005142599668 0.007735849194 0 0.0140347 0 0 24.785 0 0
0.00067 0.0005144015553 0.007735849194 0 0.014283 0 0 24.875 0 0
0.00068 0.0005145456313 0.007735849194 0 0.0145322 0 0 24.965 0 0
0.00069 0.0005146922038 0.007735849194 0 0.0147823 0 0 25.055 0 0
0.0007 0.0005148412818 0.007735849194 0 0.0150333 0 0 25.145 0 0
0.00071 0.0005149928743 0.007735849194 0 0.0152852 0 0 25.23 0 0
0.00072 0.0005151469898 0.007735849194 0 0.0155379 0 0 25.32 0 0
0.00073 0.0005153036373 0.007735849194 0 0.0157916 0 0 25.41 0 0
0.00074 0.0005154628258 0.007735849194 0 0.0160461 0 0 25.49 0 0
0.00075 0.0005156245633 0.007735849194 0 0.0163014 0 0 25.575 0 0
0.00076 0.0005157888583 0.007735849194 0 0.0165576 0 0 25.665 0 0
0.00077 0.0005159557198 0.007735849194 0 0.0168147 0 0 25.75 0 0
0.00078 0.0005161251563 0.007735849194 0 0.0170726 0 0 25.83 0 0
0.00079 0.0005162971758 0.007735849194 0 0.0173313 0 0 25.915 0 0
0.0008 0.0005164717868 0.007735849194 0 0.0175909 0 0 26 0 0
0.00081 0.0005166489978 0.007735849194 0 0.0178513 0 0 26.08 0 0
0.00082 0.0005168288168 0.007735849194 0 0.0181125 0 0 26.16 0 0
0.00083 0.0005170112518 0.007735849194 0 0.0183745 0 0 26.24 0 0
0.00084 0.0005171963108 0.007735849194 0 0.0186373 0 0 26.315 0 0
0.00085 0.0005173840013 0.007735849194 0 0.0189008 0 0 26.395 0 0
0.00086 0.0005175743313 0.007735849194 0 0.0191652 0 0 26.48 0 0
0.00087 0.0005177673093 0.007735849194 0 0.0194304 0 0 26.555 0 0
0.00088 0.0005179629428 0.007735849194 0 0.0196963 0 0 26.63 0 0
0.00089 0.0005181612393 0.007735849194 0 0.019963 0 0 26.705 0 0
0.0009 0.0005183622063 0.007735849194 0 0.0202304 0 0 26.78 0 0
0.00091 0.0005185658513 0.007735849194 0 0.0204986 0 0 26.86 0 0
0.00092 0.0005187721823 0.007735849194 0 0.0207676 0 0 26.93 0 0
0.00093 0.0005189812063 0.007735849194 0 0.0210372 0 0 27.005 0 0
0.00094 0.0005191929308 0.007735849194 0 0.0213077 0 0 27.08 0 0
0.00095 0.0005194073633 0.007735849194 0 0.0215788 0 0 27.145 0 0
0.00096 0.0005196245103 0.007735849194 0 0.0218506 0 0 27.22 0 0
0.00097 0.0005198443793 0.007735849194 0 0.0221232 0 0 27.295 0 0
0.00098 0.0005200669778 0.007735849194 0 0.0223965 0 0 27.36 0 0
0.00099 0.0005202923123 0.007735849194 0 0.0226704 0 0 27.43 0 0
0.001 0.0005205203898 0.007735849194 0 0.0229451 0 0 27.5 0 0
0.00101 0.0005207512173 0.007735849194 0 0.0232204 0 0 27.565 0 0
0.00102 0.0005209848013 0.007735849194 0 0.0234964 0 0 27.635 0 0
0.00103 0.0005212211488 0.007735849194 0 0.0237731 0 0 27.7 0 0
0.00104 0.0005214602663 0.007735849194 0 0.0240504 0 0 27.765 0 0
0.00105 0.0005217021603 0.007735849194 0 0.0243284 0 0 27.83 0 0
0.00106 0.0005219468373 0.007735849194 0 0.024607 0 0 27.895 0 0
0.00107 0.0005221943038 0.007735849194 0 0.0248863 0 0 27.96 0 0
0.00108 0.0005224445663 0.007735849194 0 0.0251662 0 0 28.025 0 0
0.00109 0.0005226976313 0.007735849194 0 0.0254468 0 0 28.085 0 0
0.0011 0.0005229535048 0.007735849194 0 0.0257279 0 0 28.145 0 0
0.00111 0.0005232121928 0.007735849194 0 0.0260097 0 0 28.21 0 0
0.00112 0.0005234737018 0.007735849194 0 0.0262921 0 0 28.27 0 0
0.00113 0.0005237380378 0.007735849194 0 0.0265751 0 0 28.325 0 0
0.00114 0.0005240052063 0.007735849194 0 0.0268586 0 0 28.385 0 0
0.00115 0.0005242752133 0.007735849194 0 0.0271428 0 0 28.445 0 0
0.00116 0.0005245480648 0.007735849194 0 0.0274275 0 0 28.505 0 0
0.00117 0.0005248237668 0.007735849194 0 0.0277129 0 0 28.56 0 0
0.00118 0.0005251023248 0.007735849194 0 0.0279987 0 0 28.615 0 0
0.00119 0.0005253837443 0.007735849194 0 0.0282852 0 0 28.675 0 0
0.0012 0.0005256680313 0.007735849194 0 0.0285722 0 0 28.725 0 0
0.00121 0.0005259551908 0.007735849194 0 0.0288597 0 0 28.78 0 0
0.00122 0.0005262452283 0.007735849194 0 0.0291478 0 0 28.835 0 0
0.00123 0.0005265381493 0.007735849194 0 0.0294364 0 0 28.885 0 0
0.00124 0.0005268339588 0.007735849194 0 0.0297255 0 0 28.94 0 0
0.00125 0.0005271326623 0.007735849194 0 0.0300152 0 0 28.99 0 0
0.00126 0.0005274342648 0.007735849194 0 0.0303053 0 0 29.04 0 0
0.00127 0.0005277387713 0.007735849194 0 0.030596 0 0 29.095 0 0
0.00128 0.0005280461873 0.007735849194 0 0.0308872 0 0 29.14 0 0
0.00129 0.0005283565173 0.007735849194 0 0.0311788 0 0 29.185 0 0
0.0013 0.0005286697658 0.007735849194 0 0.0314709 0 0 29.24 0 0
0.00131 0.0005289859383 0.007735849194 0 0.0317636 0 0 29.285 0 0
0.00132 0.0005293050393 0.007735849194 0 0.0320566 0 0 29.33 0 0
0.00133 0.0005296270733 0.007735849194 0 0.0323502 0 0 29.38 0 0
0.00134 0.0005299520453 0.007735849194 0 0.0326442 0 0 29.42 0 0
0.00135 0.0005302799593 0.007735849194 0 0.0329386 0 0 29.465 0 0
0.00136 0.0005306108198 0.007735849194 0 0.0332335 0 0 29.515 0 0
0.00137 0.0005309446318 0.007735849194 0 0.0335289 0 0 29.555 0 0
0.00138 0.0005312813993 0.007735849194 0 0.0338246 0 0 29.595 0 0
0.00139 0.0005316211263 0.007735849194 0 0.0341208 0 0 29.64 0 0
0.0014 0.0005319638173 0.007735849194 0 0.0344174 0 0 29.68 0 0
0.00141 0.0005323094763 0.007735849194 0 0.0347144 0 0 29.72 0 0
0.00142 0.0005326581073 0.007735849194 0 0.0350118 0 0 29.76 0 0
0.00143 0.0005330097143 0.007735849194 0 0.0353096 0 0 29.8 0 0
0.00144 0.0005333643013 0.007735849194 0 0.0356078 0 0 29.84 0 0
0.00145 0.0005337218723 0.007735849194 0 0.0359064 0 0 29.875 0 0
0.00146 0.0005340824308 0.007735849194 0 0.0362053 0 0 29.91 0 0
0.00147 0.0005344459803 0.007735849194 0 0.0365046 0 0 29.95 0 0
0.00148 0.0005348125248 0.007735849194 0 0.0368043 0 0 29.985 0 0
0.00149 0.0005351820678 0.007735849194 0 0.0371043 0 0 30.02 0 0
0.0015 0.0005355546128 0.007735849194 0 0.0374047 0 0 30.055 0 0
0.00151 0.0005359301633 0.007735849194 0 0.0377054 0 0 30.085 0 0
0.00152 0.0005363087223 0.007735849194 0 0.0380064 0 0 30.12 0 0
0.00153 0.0005366902933 0.007735849194 0 0.0383078 0 0 30.155 0 0
0.00154 0.0005370748798 0.007735849194 0 0.0386095 0 0 30.185 0 0
0.00155 0.0005374624848 0.007735849194 0 0.0389115 0 0 30.215 0 0
0.00156 0.0005378531113 0.007735849194 0 0.0392138 0 0 30.245 0 0
0.00157 0.0005382467623 0.007735849194 0 0.0395164 0 0 30.275 0 0
0.00158 0.0005386434408 0.007735849194 0 0.0398193 0 0 30.305 0 0
0.00159 0.0005390431498 0.007735849194 0 0.0401225 0 0 30.33 0 0
0.0016 0.0005394458918 0.007735849194 0 0.0404259 0 0 30.355 0 0
0.00161 0.0005398516693 0.007735849194 0 0.0407296 0 0 30.385 0 0
0.00162 0.0005402604853 0.007735849194 0 0.0410336 0 0 30.415 0 0
0.00163 0.0005406723428 0.007735849194 0 0.0413379 0 0 30.44 0 0
0.00164 0.0005410872443 0.007735849194 0 0.0416424 0 0 30.46 0 0
0.00165 0.0005415051918 0.007735849194 0 0.0419471 0 0 30.485 0 0
0.00166 0.0005419261878 0.007735849194 0 0.0422521 0 0 30.51 0 0
0.00167 0.0005423502348 0.007735849194 0 0.0425573 0 0 30.535 0 0
0.00168 0.0005427773353 0.007735849194 0 0.0428628 0 0 30.555 0 0
0.00169 0.0005432074913 0.007735849194 0 0.0431684 0 0 30.575 0 0
0.0017 0.0005436407048 0.007735849194 0 0.0434743 0 0 30.595 0 0
0.00171 0.0005440769778 0.007735849194 0 0.0437803 0 0 30.615 0 0
0.00172 0.0005445163123 0.007735849194 0 0.0440866 0 0 30.64 0 0
0.00173 0.0005449587108 0.007735849194 0 0.0443931 0 0 30.655 0 0
0.00174 0.0005454041748 0.007735849194 0 0.0446997 0 0 30.67 0 0
0.00175 0.0005458527058 0.007735849194 0 0.0450065 0 0 30.69 0 0
0.00176 0.0005463043058 0.007735849194 0 0.0453135 0 0 30.705 0 0
0.00177 0.0005467589763 0.007735849194 0 0.0456206 0 0 30.72 0 0
0.00178 0.0005472167188 0.007735849194 0 0.0459279 0 0 30.735 0 0
0.00179 0.0005476775348 0.007735849194 0 0.0462353 0 0 30.75 0 0
0.0018 0.0005481414258 0.007735849194 0 0.0465429 0 0 30.765 0 0
0.00181 0.0005486083933 0.007735849194 0 0.0468506 0 0 30.78 0 0
0.00182 0.0005490784388 0.007735849194 0 0.0471585 0 0 30.79 0 0
0.00183 0.0005495515633 0.007735849194 0 0.0474664 0 0 30.8 0 0
0.00184 0.0005500277678 0.007735849194 0 0.0477745 0 0 30.815 0 0
0.00185 0.0005505070538 0.007735849194 0 0.0480827 0 0 30.825 0 0
0.00186 0.0005509894223 0.007735849194 0 0.048391 0 0 30.83 0 0
0.00187 0.0005514748738 0.007735849194 0 0.0486993 0 0 30.84 0 0
0.00188 0.0005519634093 0.007735849194 0 0.0490078 0 0 30.85 0 0
0.00189 0.0005524550298 0.007735849194 0 0.0493163 0 0 30.86 0 0
0.0019 0.0005529497363 0.007735849194 0 0.049625 0 0 30.865 0 0
0.00191 0.0005534475293 0.007735849194 0 0.0499336 0 0 30.87 0 0
0.00192 0.0005539484093 0.007735849194 0 0.0502424 0 0 30.88 0 0
0.00193 0.0005544523773 0.007735849194 0 0.0505512 0 0 30.88 0 0
0.00194 0.0005549594333 0.007735849194 0 0.05086 0 0 30.885 0 0
0.00195 0.0005554695778 0.007735849194 0 0.0511689 0 0 30.89 0 0
0.00196 0.0005559828113 0.007735849194 0 0.0514778 0 0 30.89 0 0
0.00197 0.0005564991338 0.007735849194 0 0.0517867 0 0 30.895 0 0
0.00198 0.0005570185458 0.007735849194 0 0.0520957 0 0 30.895 0 0
0.00199 0.0005575410473 0.007735849194 0 0.0524046 0 0 30.895 0 0
0.002 0.0005580666383 0.007735849194 0 0.0527136 0 0 30.895 0 0
0.00201 0.0005585953188 0.007735849194 0 0.0530225 0 0 30.895 0 0
0.00202 0.0005591270888 0.007735849194 0 0.0533315 0 0 30.895 0 0
0.00203 0.0005596619483 0.007735849194 0 0.0536404 0 0 30.89 0 0
0.00204 0.0005601998968 0.007735849194 0 0.0539493 0 0 30.89 0 0
0.00205 0.0005607409343 0.007735849194 0 0.0542582 0 0 30.885 0 0
0.00206 0.0005612850603 0.007735849194 0 0.054567 0 0 30.88 0 0
0.00207 0.0005618322743 0.007735849194 0 0.0548758 0 0 30.88 0 0
0.00208 0.0005623825763 0.007735849194 0 0.0551846 0 0 30.875 0 0
0.00209 0.0005629359658 0.007735849194 0 0.0554933 0 0 30.865 0 0
0.0021 0.0005634924418 0.007735849194 0 0.0558019 0 0 30.855 0 0
0.00211 0.0005640520033 0.007735849194 0 0.0561104 0 0 30.85 0 0
0.00212 0.0005646146498 0.007735849194 0 0.0564189 0 0 30.845 0 0
0.00213 0.0005651803808 0.007735849194 0 0.0567273 0 0 30.835 0 0
0.00214 0.0005657491953 0.007735849194 0 0.0570356 0 0 30.825 0 0
0.00215 0.0005663210923 0.007735849194 0 0.0573438 0 0 30.815 0 0
0.00216 0.0005668960708 0.007735849194 0 0.0576519 0 0 30.805 0 0
0.00217 0.0005674741298 0.007735849194 0 0.0579599 0 0 30.79 0 0
0.00218 0.0005680552678 0.007735849194 0 0.0582677 0 0 30.78 0 0
0.00219 0.0005686394838 0.007735849194 0 0.0585755 0 0 30.77 0 0
0.0022 0.0005692267768 0.007735849194 0 0.0588831 0 0 30.75 0 0
0.00221 0.0005698171448 0.007735849194 0 0.0591905 0 0 30.735 0 0
0.00222 0.0005704105863 0.007735849194 0 0.0594978 0 0 30.725 0 0
0.00223 0.0005710071003 0.007735849194 0 0.059805 0 0 30.71 0 0
0.00224 0.0005716066853 0.007735849194 0 0.060112 0 0 30.69 0 0
0.00225 0.0005722093393 0.007735849194 0 0.0604188 0 0 30.675 0 0
0.00226 0.0005728150608 0.007735849194 0 0.0607255 0 0 30.66 0 0
0.00227 0.0005734238483 0.007735849194 0 0.061032 0 0 30.635 0 0
0.00228 0.0005740356993 0.007735849194 0 0.0613382 0 0 30.615 0 0
0.00229 0.0005746506118 0.007735849194 0 0.0616443 0 0 30.6 0 0
0.0023 0.0005752685843 0.007735849194 0 0.0619502 0 0 30.58 0 0
0.00231 0.0005758896148 0.007735849194 0 0.0622559 0 0 30.56 0 0
0.00232 0.0005765137013 0.007735849194 0 0.0625614 0 0 30.535 0 0
0.00233 0.0005771408413 0.007735849194 0 0.0628666 0 0 30.51 0 0
0.00234 0.0005777710323 0.007735849194 0 0.0631716 0 0 30.49 0 0
0.00235 0.0005784042723 0.007735849194 0 0.0634764 0 0 30.47 0 0
0.00236 0.0005790405593 0.007735849194 0 0.063781 0 0 30.44 0 0
0.00237 0.0005796798903 0.007735849194 0 0.0640852 0 0 30.415 0 0
0.00238 0.0005803222628 0.007735849194 0 0.0643893 0 0 30.39 0 0
0.00239 0.0005809676743 0.007735849194 0 0.064693 0 0 30.36 0 0
0.0024 0.0005816161218 0.007735849194 0 0.0649965 0 0 30.34 0 0
0.00241 0.0005822676033 0.007735849194 0 0.0652998 0 0 30.31 0 0
0.00242 0.0005829221158 0.007735849194 0 0.0656027 0 0 30.28 0 0
0.00243 0.0005835796563 0.007735849194 0 0.0659054 0 0 30.25 0 0
0.00244 0.0005842402218 0.007735849194 0 0.0662077 0 0 30.215 0 0
0.00245 0.0005849038088 0.007735849194 0 0.0665097 0 0 30.19 0 0
0.00246 0.0005855704148 0.007735849194 0 0.0668115 0 0 30.16 0 0
0.00247 0.0005862400368 0.007735849194 0 0.0671129 0 0 30.125 0 0
0.00248 0.0005869126713 0.007735849194 0 0.067414 0 0 30.09 0 0
0.00249 0.0005875883148 0.007735849194 0 0.0677147 0 0 30.06 0 0
0.0025 0.0005882669643 0.007735849194 0 0.0680152 0 0 30.025 0 0
0.00251 0.0005889486163 0.007735849194 0 0.0683152 0 0 29.99 0 0
0.00252 0.0005896332673 0.007735849194 0 0.068615 0 0 29.955 0 0
0.00253 0.0005903209138 0.007735849194 0 0.0689143 0 0 29.915 0 0
0.00254 0.0005910115518 0.007735849194 0 0.0692133 0 0 29.88 0 0
0.00255 0.0005917051778 0.007735849194 0 0.0695119 0 0 29.845 0 0
0.00256 0.0005924017883 0.007735849194 0 0.0698102 0 0 29.81 0 0
0.00257 0.0005931013798 0.007735849194 0 0.0701081 0 0 29.765 0 0
0.00258 0.0005938039478 0.007735849194 0 0.0704055 0 0 29.725 0 0
0.00259 0.0005945094883 0.007735849194 0 0.0707026 0 0 29.685 0 0
0.0026 0.0005952179973 0.007735849194 0 0.0709992 0 0 29.645 0 0
0.00261 0.0005959294708 0.007735849194 0 0.0712955 0 0 29.605 0 0
0.00262 0.0005966439048 0.007735849194 0 0.0715913 0 0 29.56 0 0
0.00263 0.0005973612948 0.007735849194 0 0.0718867 0 0 29.515 0 0
0.00264 0.0005980816363 0.007735849194 0 0.0721816 0 0 29.475 0 0
0.00265 0.0005988049253 0.007735849194 0 0.0724762 0 0 29.43 0 0
0.00266 0.0005995311573 0.007735849194 0 0.0727702 0 0 29.38 0 0
0.00267 0.0006002603273 0.007735849194 0 0.0730638 0 0 29.34 0 0
0.00268 0.0006009924313 0.007735849194 0 0.073357 0 0 29.295 0 0
0.00269 0.0006017274648 0.007735849194 0 0.0736497 0 0 29.245 0 0
0.0027 0.0006024654228 0.007735849194 0 0.0739419 0 0 29.195 0 0
0.00271 0.0006032063003 0.007735849194 0 0.0742336 0 0 29.15 0 0
0.00272 0.0006039500928 0.007735849194 0 0.0745249 0 0 29.1 0 0
0.00273 0.0006046967953 0.007735849194 0 0.0748156 0 0 29.045 0 0
0.00274 0.0006054464023 0.007735849194 0 0.0751058 0 0 29 0 0
0.00275 0.0006061989093 0.007735849194 0 0.0753956 0 0 28.95 0 0
0.00276 0.0006069543113 0.007735849194 0 0.0756848 0 0 28.89 0 0
0.00277 0.0006077126023 0.007735849194 0 0.0759734 0 0 28.84 0 0
0.00278 0.0006084737773 0.007735849194 0 0.0762616 0 0 28.79 0 0
0.00279 0.0006092378313 0.007735849194 0 0.0765492 0 0 28.735 0 0
0.0028 0.0006100047588 0.007735849194 0 0.0768363 0 0 28.68 0 0
0.00281 0.0006107745543 0.007735849194 0 0.0771228 0 0 28.625 0 0
0.00282 0.0006115472123 0.007735849194 0 0.0774088 0 0 28.57 0 0
0.00283 0.0006123227273 0.007735849194 0 0.0776942 0 0 28.51 0 0
0.00284 0.0006131010933 0.007735849194 0 0.077979 0 0 28.45 0 0
0.00285 0.0006138823043 0.007735849194 0 0.0782632 0 0 28.395 0 0
0.00286 0.0006146663548 0.007735849194 0 0.0785469 0 0 28.34 0 0
0.00287 0.0006154532393 0.007735849194 0 0.07883 0 0 28.28 0 0
0.00288 0.0006162429518 0.007735849194 0 0.0791125 0 0 28.215 0 0
0.00289 0.0006170354858 0.007735849194 0 0.0793943 0 0 28.155 0 0
0.0029 0.0006178308353 0.007735849194 0 0.0796756 0 0 28.095 0 0
0.00291 0.0006186289943 0.007735849194 0 0.0799562 0 0 28.03 0 0
0.00292 0.0006194299563 0.007735849194 0 0.0802362 0 0 27.97 0 0
0.00293 0.0006202337153 0.007735849194 0 0.0805156 0 0 27.905 0 0
0.00294 0.0006210402648 0.007735849194 0 0.0807943 0 0 27.84 0 0
0.00295 0.0006218495983 0.007735849194 0 0.0810724 0 0 27.775 0 0
0.00296 0.0006226617093 0.007735849194 0 0.0813498 0 0 27.71 0 0
0.00297 0.0006234765913 0.007735849194 0 0.0816266 0 0 27.645 0 0
0.00298 0.0006242942378 0.007735849194 0 0.0819027 0 0 27.575 0 0
0.00299 0.0006251146418 0.007735849194 0 0.0821781 0 0 27.51 0 0
0.003 0.0006259377968 0.007735849194 0 0.0824529 0 0 27.445 0 0
0.00301 0.0006267636963 0.007735849194 0 0.082727 0 0 27.37 0 0
0.00302 0.0006275923328 0.007735849194 0 0.0830003 0 0 27.3 0 0
0.00303 0.0006284236993 0.007735849194 0 0.083273 0 0 27.23 0 0
