t px py theta vx vy omega ax ay alpha 
0.0001 0.0005099904278 0.007735849194 0 0.00179215 0 0 18.582 0 0
0.0002 0.0005102647022 0.007735849194 0 0.00371421 0 0 19.8475 0 0
0.0003 0.0005107373918 0.007735849194 0 0.00575932 0 0 21.0435 0 0
0.0004 0.0005114204595 0.007735849194 0 0.00792064 0 0 22.1715 0 0
0.0005 0.0005123251828 0.007735849194 0 0.0101913 0 0 23.2295 0 0
0.0006 0.0005134621548 0.007735849194 0 0.0125645 0 0 24.225 0 0
0.0007 0.0005148412818 0.007735849194 0 0.0150333 0 0 25.145 0 0
0.0008 0.0005164717868 0.007735849194 0 0.0175909 0 0 26 0 0
0.0009 0.0005183622063 0.007735849194 0 0.0202304 0 0 26.78 0 0
0.001 0.0005205203898 0.007735849194 0 0.0229451 0 0 27.5 0 0
0.0011 0.0005229535048 0.007735849194 0 0.0257279 0 0 28.145 0 0
0.0012 0.0005256680313 0.007735849194 0 0.0285722 0 0 28.725 0 0
0.0013 0.0005286697658 0.007735849194 0 0.0314709 0 0 29.24 0 0
0.0014 0.0005319638173 0.007735849194 0 0.0344174 0 0 29.68 0 0
0.0015 0.0005355546128 0.007735849194 0 0.0374047 0 0 30.055 0 0
0.0016 0.0005394458918 0.007735849194 0 0.0404259 0 0 30.355 0 0
0.0017 0.0005436407048 0.007735849194 0 0.0434743 0 0 30.595 0 0
0.0018 0.0005481414258 0.007735849194 0 0.0465429 0 0 30.765 0 0
0.0019 0.0005529497363 0.007735849194 0 0.049625 0 0 30.865 0 0
0.002 0.0005580666383 0.007735849194 0 0.0527136 0 0 30.895 0 0
0.0021 0.0005634924418 0.007735849194 0 0.0558019 0 0 30.855 0 0
0.0022 0.0005692267768 0.007735849194 0 0.0588831 0 0 30.75 0 0
0.0023 0.0005752685843 0.007735849194 0 0.0619502 0 0 30.58 0 0
0.0024 0.0005816161218 0.007735849194 0 0.0649965 0 0 30.34 0 0
0.0025 0.0005882669643 0.007735849194 0 0.0680152 0 0 30.025 0 0
0.0026 0.0005952179973 0.007735849194 0 0.0709992 0 0 29.645 0 0
0.0027 0.0006024654228 0.007735849194 0 0.0739419 0 0 29.195 0 0
0.0028 0.0006100047588 0.007735849194 0 0.0768363 0 0 28.68 0 0
0.0029 0.0006178308353 0.007735849194 0 0.0796756 0 0 28.095 0 0
0.003 0.0006259377968 0.007735849194 0 0.0824529 0 0 27.445 0 0
0.0031 0.0006343191073 0.007735849194 0 0.0851614 0 0 26.72 0 0
0.0032 0.0006429675393 0.007735849194 0 0.0877942 0 0 25.93 0 0
0.0033 0.0006518751848 0.007735849194 0 0.0903445 0 0 25.07 0 0
0.0034 0.0006610334498 0.007735849194 0 0.0928055 0 0 24.14 0 0
0.0035 0.0006704330543 0.007735849194 0 0.0951702 0 0 23.145 0 0
0.0036 0.0006800640293 0.007735849194 0 0.0974318 0 0 22.08 0 0
0.0037 0.0006899157248 0.007735849194 0 0.0995835 0 0 20.945 0 0
0.0038 0.0006999781503 0.007735849194 0 0.101669 0 0 21 0 0
0.0039 0.0007102511203 0.007735849194 0 0.103801 0 0 21.65 0 0
0.004 0.0007207407203 0.007735849194 0 0.106005 0 0 22.45 0 0
0.0041 0.0007314552853 0.007735849194 0 0.108304 0 0 23.55 0 0
0.0042 0.0007424054253 0.007735849194 0 0.11072 0 0 24.8 0 0
0.0043 0.0007536039953 0.007735849194 0 0.113276 0 0 26.35 0 0
0.0044 0.0007650661303 0.007735849194 0 0.115995 0 0 28.1 0 0
0.0045 0.0007768091903 0.007735849194 0 0.118899 0 0 30.05 0 0
0.0046 0.0007888528053 0.007735849194 0 0.12201 0 0 32.2 0 0
0.0047 0.0008012188503 0.007735849194 0 0.125351 0 0 34.65 0 0
0.0048 0.0008139314903 0.007735849194 0 0.128945 0 0 37.25 0 0
0.0049 0.0008270171203 0.007735849194 0 0.132815 0 0 40.15 0 0
0.005 0.0008405044053 0.007735849194 0 0.136982 0 0 43.25 0 0
0.0051 0.0008544242303 0.007735849194 0 0.141469 0 0 46.55 0 0
0.0052 0.0008688097753 0.007735849194 0 0.1463 0 0 50.1 0 0
0.0053 0.0008836964853 0.007735849194 0 0.151496 0 0 53.85 0 0
0.0054 0.0008991220153 0.007735849194 0 0.15708 0 0 57.85 0 0
0.0055 0.0009151263203 0.007735849194 0 0.163075 0 0 62.05 0 0
0.0056 0.0009317515953 0.007735849194 0 0.169504 0 0 66.5 0 0
0.0057 0.0009490422953 0.007735849194 0 0.176388 0 0 71.2 0 0
0.0058 0.0009670451453 0.007735849194 0 0.18375 0 0 76.05 0 0
0.0059 0.0009858090703 0.007735849194 0 0.191613 0 0 81.2 0 0
0.006 0.001005385325 0.007735849194 0 0.2 0 0 86.1 0 0
0.0061 0.00102579732 0.007735849194 0 0.208053 0 0 75.3 0 0
0.0062 0.00104696602 0.007735849194 0 0.215211 0 0 68.65 0 0
0.0063 0.00106882506 0.007735849194 0 0.221937 0 0 66.65 0 0
0.0064 0.00109135445 0.007735849194 0 0.228695 0 0 69.3 0 0
0.0065 0.00111458064 0.007735849194 0 0.235949 0 0 76.6 0 0
0.0066 0.00113857651 0.007735849194 0 0.244165 0 0 88.5 0 0
0.0067 0.001163461295 0.007735849194 0 0.253804 0 0 105.05 0 0
0.0068 0.00118940064 0.007735849194 0 0.265333 0 0 126.25 0 0
0.0069 0.001216606645 0.007735849194 0 0.279214 0 0 152.1 0 0
0.007 0.001245337775 0.007735849194 0 0.295912 0 0 182.65 0 0
0.0071 0.00127589896 0.007735849194 0 0.315891 0 0 217.75 0 0
0.0072 0.001308641485 0.007735849194 0 0.339616 0 0 257.55 0 0
0.0073 0.00134396307 0.007735849194 0 0.367549 0 0 301.95 0 0
0.0074 0.001382307845 0.007735849194 0 0.400156 0 0 350.95 0 0
0.0075 0.001424166335 0.007735849194 0 0.4379 0 0 404.7 0 0
0.0076 0.001470075485 0.007735849194 0 0.481246 0 0 463 0 0
0.0077 0.00152061866 0.007735849194 0 0.530657 0 0 525.95 0 0
0.0078 0.001576425605 0.007735849194 0 0.586598 0 0 593.6 0 0
0.0079 0.00163817251 0.007735849194 0 0.649533 0 0 665.9 0 0
0.008 0.00170658197 0.007735849194 0 0.719925 0 0 742.75 0 0
0.0081 0.001782422945 0.007735849194 0 0.79824 0 0 824.3 0 0
0.0082 0.001866510855 0.007735849194 0 0.88494 0 0 910.5 0 0
0.0083 0.00195970752 0.007735849194 0 0.980491 0 0 1001.3 0 0
0.0084 0.002062921085 0.007735849194 0 1.08536 0 0 1096.5 0 0
0.0085 0.002177106285 0.007735849194 0 1.2 0 0 1203 0 0
0.0086 0.002303649535 0.007735849194 0 1.33631 0 0 1527 0 0
0.0087 0.002445449735 0.007735849194 0 1.50491 0 0 1842.5 0 0
0.0088 0.002605665635 0.007735849194 0 1.70439 0 0 2144.5 0 0
0.0089 0.002787313785 0.007735849194 0 1.93332 0 0 2432 0 0
0.009 0.002993268835 0.007735849194 0 2.19029 0 0 2705.5 0 0
0.0091 0.003226263885 0.007735849194 0 2.47388 0 0 2964 0 0
0.0092 0.003488889885 0.007735849194 0 2.78268 0 0 3209.5 0 0
0.0093 0.003783596035 0.007735849194 0 3.11525 0 0 3440 0 0
0.0094 0.004112689335 0.007735849194 0 3.47019 0 0 3656.5 0 0
0.0095 0.004478335535 0.007735849194 0 3.84607 0 0 3859 0 0
0.0096 0.004882557985 0.007735849194 0 4.24148 0 0 4047 0 0
0.0097 0.005327238285 0.007735849194 0 4.655 0 0 4221 0 0
0.0098 0.005814116385 0.007735849194 0 5.0852 0 0 4380.5 0 0
0.0099 0.006344789935 0.007735849194 0 5.53067 0 0 4526.5 0 0
0.01 0.006920715085 0.007735849194 0 5.99 0 0 4685 0 0
0.0101 0.007544900035 0.007735849194 0 6.51117 0 0 5716.5 0 0
0.0102 0.008226005535 0.007735849194 0 7.12357 0 0 6481.5 0 0
0.0103 0.008971686835 0.007735849194 0 7.79785 0 0 6954 0 0
0.0104 0.009786665435 0.007735849194 0 8.50467 0 0 7132.5 0 0
0.0105 0.01067272859 0.007735849194 0 9.2147 0 0 7018 0 0
0.0106 0.01162872944 0.007735849194 0 9.89859 0 0 6610 0 0
0.0107 0.01265058749 0.007735849194 0 10.527 0 0 5910 0 0
0.0108 0.01373128749 0.007735849194 0 11.0706 0 0 4910 0 0
0.0109 0.01486087849 0.007735849194 0 11.5 0 0 3645 0 0
0.011 0.01602790399 0.007735849194 0 11.8299 0 0 2980 0 0
0.0111 0.01722482049 0.007735849194 0 12.099 0 0 2410 0 0
0.0112 0.01844589199 0.007735849194 0 12.3141 0 0 1905 0 0
0.0113 0.01968605749 0.007735849194 0 12.482 0 0 1465 0 0
0.0114 0.02094093799 0.007735849194 0 12.6095 0 0 1095 0 0
0.0115 0.02220683049 0.007735849194 0 12.7034 0 0 795 0 0
0.0116 0.02348071799 0.007735849194 0 12.7705 0 0 560 0 0
0.0117 0.02476025749 0.007735849194 0 12.8176 0 0 395 0 0
0.0118 0.02604379199 0.007735849194 0 12.8515 0 0 295 0 0
0.0119 0.02733033949 0.007735849194 0 12.879 0 0 265 0 0
0.012 0.02861959749 0.007735849194 0 12.9068 0 0 305 0 0
0.0121 0.02991194449 0.007735849194 0 12.9414 0 0 350 0 0
0.0122 0.03120761599 0.007735849194 0 12.9697 0 0 210 0 0
0.0123 0.03250540199 0.007735849194 0 12.9837 0 0 70 0 0
0.0124 0.03380386099 0.007735849194 0 12.9831 0 0 -75 0 0
0.0125 0.03510153849 0.007735849194 0 12.968 0 0 -225 0 0
0.0126 0.03639696499 0.007735849194 0 12.9381 0 0 -370 0 0
0.0127 0.03768865599 0.007735849194 0 12.8933 0 0 -520 0 0
0.0128 0.03897511449 0.007735849194 0 12.8334 0 0 -675 0 0
0.0129 0.04025482699 0.007735849194 0 12.7583 0 0 -825 0 0
0.013 0.04152626599 0.007735849194 0 12.6679 0 0 -985 0 0
0.0131 0.04278789149 0.007735849194 0 12.562 0 0 -1135 0 0
0.0132 0.04403814949 0.007735849194 0 12.4406 0 0 -1300 0 0
0.0133 0.04527502599 0.007735849194 0 12.2903 0 0 -1695 0 0
0.0134 0.04649501349 0.007735849194 0 12.1042 0 0 -2010 0 0
0.0135 0.04769496349 0.007735849194 0 11.891 0 0 -2240 0 0
0.0136 0.04887259749 0.007735849194 0 11.6594 0 0 -2380 0 0
0.0137 0.05002651149 0.007735849194 0 11.418 0 0 -2430 0 0
0.0138 0.05115617349 0.007735849194 0 11.1758 0 0 -2400 0 0
0.0139 0.05226192799 0.007735849194 0 10.9413 0 0 -2280 0 0
0.014 0.05334498949 0.007735849194 0 10.7234 0 0 -2075 0 0
0.0141 0.05440697049 0.007735849194 0 10.516 0 0 -2080 0 0
0.0142 0.05544815499 0.007735849194 0 10.3075 0 0 -2090 0 0
0.0143 0.05646844199 0.007735849194 0 10.0981 0 0 -2100 0 0
0.0144 0.05746775299 0.007735849194 0 9.88806 0 0 -2103 0 0
0.0145 0.05844604019 0.007735849194 0 9.67764 0 0 -2105.5 0 0
0.0146 0.05940327554 0.007735849194 0 9.46707 0 0 -2105.5 0 0
0.0147 0.06033945744 0.007735849194 0 9.25661 0 0 -2103 0 0
0.0148 0.06125460909 0.007735849194 0 9.0465 0 0 -2098.5 0 0
0.0149 0.06214877854 0.007735849194 0 8.83701 0 0 -2091 0 0
0.015 0.06302203879 0.007735849194 0 8.62836 0 0 -2081.5 0 0
0.0151 0.06387448714 0.007735849194 0 8.42081 0 0 -2069 0 0
0.0152 0.06470624659 0.007735849194 0 8.21462 0 0 -2054.5 0 0
0.0153 0.06551746419 0.007735849194 0 8.01002 0 0 -2037 0 0
0.0154 0.06630831224 0.007735849194 0 7.80727 0 0 -2017.5 0 0
0.0155 0.06707898784 0.007735849194 0 7.60661 0 0 -1995.5 0 0
0.0156 0.06782971299 0.007735849194 0 7.4083 0 0 -1971 0 0
0.0157 0.06856073414 0.007735849194 0 7.21257 0 0 -1943.5 0 0
0.0158 0.06927232284 0.007735849194 0 7.01969 0 0 -1913.5 0 0
0.0159 0.06996477589 0.007735849194 0 6.8299 0 0 -1881.5 0 0
0.016 0.07063841409 0.007735849194 0 6.64344 0 0 -1847.5 0 0
0.0161 0.07129358349 0.007735849194 0 6.46056 0 0 -1810 0 0
0.0162 0.07193065509 0.007735849194 0 6.28152 0 0 -1770.5 0 0
0.0163 0.07255002479 0.007735849194 0 6.10656 0 0 -1728.5 0 0
0.0164 0.07315211274 0.007735849194 0 5.93593 0 0 -1683.5 0 0
0.0165 0.07373735849 0.007735849194 0 5.76952 0 0 -1651.5 0 0
0.0166 0.07430608484 0.007735849194 0 5.60533 0 0 -1632.5 0 0
0.0167 0.07485848914 0.007735849194 0 5.44309 0 0 -1612 0 0
0.0168 0.07539477119 0.007735849194 0 5.2829 0 0 -1591.5 0 0
0.0169 0.07591513964 0.007735849194 0 5.12483 0 0 -1570 0 0
0.017 0.07641981159 0.007735849194 0 4.96898 0 0 -1547.5 0 0
0.0171 0.07690901359 0.007735849194 0 4.81544 0 0 -1523.5 0 0
0.0172 0.07738298029 0.007735849194 0 4.6643 0 0 -1499 0 0
0.0173 0.07784195574 0.007735849194 0 4.51563 0 0 -1474 0 0
0.0174 0.07828619224 0.007735849194 0 4.36953 0 0 -1447.5 0 0
0.0175 0.07871595124 0.007735849194 0 4.22609 0 0 -1421 0 0
0.0176 0.07913150269 0.007735849194 0 4.0854 0 0 -1393 0 0
0.0177 0.07953312579 0.007735849194 0 3.94754 0 0 -1364 0 0
0.0178 0.07992110809 0.007735849194 0 3.8126 0 0 -1334.5 0 0
0.0179 0.08029574599 0.007735849194 0 3.68066 0 0 -1304 0 0
0.018 0.08065734444 0.007735849194 0 3.55183 0 0 -1272.5 0 0
0.0181 0.08100621784 0.007735849194 0 3.42617 0 0 -1240 0 0
0.0182 0.08134268874 0.007735849194 0 3.30379 0 0 -1207 0 0
0.0183 0.08166708884 0.007735849194 0 3.18477 0 0 -1173 0 0
0.0184 0.08197975849 0.007735849194 0 3.0692 0 0 -1138.5 0 0
0.0185 0.08228104659 0.007735849194 0 2.95716 0 0 -1102.5 0 0
0.0186 0.08257131129 0.007735849194 0 2.84874 0 0 -1066 0 0
0.0187 0.08285091929 0.007735849194 0 2.74404 0 0 -1028 0 0
0.0188 0.08312024624 0.007735849194 0 2.64313 0 0 -990 0 0
0.0189 0.08337967614 0.007735849194 0 2.54611 0 0 -950.5 0 0
0.019 0.08362960214 0.007735849194 0 2.45307 0 0 -910.5 0 0
0.0191 0.08387038919 0.007735849194 0 2.36298 0 0 -891.5 0 0
0.0192 0.08410226024 0.007735849194 0 2.27475 0 0 -872.5 0 0
0.0193 0.08432540249 0.007735849194 0 2.1884 0 0 -854 0 0
0.0194 0.08454000279 0.007735849194 0 2.10392 0 0 -835.5 0 0
0.0195 0.08474624789 0.007735849194 0 2.0213 0 0 -816.5 0 0
0.0196 0.08494432439 0.007735849194 0 1.94054 0 0 -798 0 0
0.0197 0.08513441854 0.007735849194 0 1.86165 0 0 -780 0 0
0.0198 0.08531671699 0.007735849194 0 1.78462 0 0 -761 0 0
0.0199 0.08549140569 0.007735849194 0 1.70946 0 0 -742 0 0
0.02 0.08565867129 0.007735849194 0 1.63616 0 0 -723.5 0 0
0.0201 0.08581869944 0.007735849194 0 1.56471 0 0 -705 0 0
0.0202 0.08597167624 0.007735849194 0 1.49513 0 0 -686.5 0 0
0.0203 0.08611778759 0.007735849194 0 1.4274 0 0 -668 0 0
0.0204 0.08625721914 0.007735849194 0 1.36153 0 0 -649.5 0 0
0.0205 0.08639015629 0.007735849194 0 1.29752 0 0 -631 0 0
0.0206 0.08651678479 0.007735849194 0 1.23536 0 0 -612.5 0 0
0.0207 0.08663728984 0.007735849194 0 1.17505 0 0 -594 0 0
0.0208 0.08675185699 0.007735849194 0 1.1166 0 0 -575.5 0 0
0.0209 0.08686067104 0.007735849194 0 1.05999 0 0 -557 0 0
0.021 0.08696391719 0.007735849194 0 1.00524 0 0 -538.25 0 0
0.0211 0.08706178059 0.007735849194 0 0.952334 0 0 -519.85 0 0
0.0212 0.08715444594 0.007735849194 0 0.901278 0 0 -501.3 0 0
0.0213 0.08724209799 0.007735849194 0 0.852068 0 0 -482.9 0 0
0.0214 0.08732492132 0.007735849194 0 0.804703 0 0 -464.45 0 0
0.0215 0.08740310044 0.007735849194 0 0.759183 0 0 -445.95 0 0
0.0216 0.08747681977 0.007735849194 0 0.715507 0 0 -427.55 0 0
0.0217 0.08754626358 0.007735849194 0 0.673673 0 0 -409.15 0 0
0.0218 0.08761161607 0.007735849194 0 0.63368 0 0 -390.75 0 0
0.0219 0.08767306126 0.007735849194 0 0.595527 0 0 -372.35 0 0
0.022 0.08773078315 0.007735849194 0 0.559214 0 0 -353.9 0 0
0.0221 0.08778496559 0.007735849194 0 0.524738 0 0 -335.6 0 0
0.0222 0.08783579227 0.007735849194 0 0.492099 0 0 -317.2 0 0
0.0223 0.08788344689 0.007735849194 0 0.461296 0 0 -298.9 0 0
0.0224 0.0879281129 0.007735849194 0 0.432327 0 0 -280.55 0 0
0.0225 0.08796997374 0.007735849194 0 0.405192 0 0 -262.2 0 0
0.0226 0.08800921269 0.007735849194 0 0.379889 0 0 -243.85 0 0
0.0227 0.08804601297 0.007735849194 0 0.356418 0 0 -225.55 0 0
0.0228 0.08808055763 0.007735849194 0 0.334777 0 0 -207.3 0 0
0.0229 0.08811302962 0.007735849194 0 0.314965 0 0 -189 0 0
0.023 0.08814361182 0.007735849194 0 0.296981 0 0 -170.7 0 0
0.0231 0.08817248698 0.007735849194 0 0.280824 0 0 -152.45 0 0
0.0232 0.0881998377 0.007735849194 0 0.266492 0 0 -134.2 0 0
0.0233 0.08822584654 0.007735849194 0 0.253986 0 0 -115.95 0 0
0.0234 0.0882506959 0.007735849194 0 0.243303 0 0 -97.75 0 0
0.0235 0.08827456811 0.007735849194 0 0.234442 0 0 -79.5 0 0
0.0236 0.08829764362 0.007735849194 0 0.227278 0 0 -67.55 0 0
0.0237 0.08832003804 0.007735849194 0 0.220653 0 0 -65 0 0
0.0238 0.08834178263 0.007735849194 0 0.21428 0 0 -62.45 0 0
0.0239 0.0883629024 0.007735849194 0 0.208156 0 0 -60 0 0
0.024 0.08838342189 0.007735849194 0 0.202273 0 0 -57.65 0 0
0.0241 0.08840336501 0.007735849194 0 0.196628 0 0 -55.3 0 0
0.0242 0.08842275525 0.007735849194 0 0.191215 0 0 -53 0 0
0.0243 0.08844161552 0.007735849194 0 0.186028 0 0 -50.75 0 0
0.0244 0.08845996821 0.007735849194 0 0.181062 0 0 -48.55 0 0
0.0245 0.0884778352 0.007735849194 0 0.176313 0 0 -46.4 0 0
0.0246 0.08849523787 0.007735849194 0 0.171774 0 0 -44.35 0 0
0.0247 0.088512197 0.007735849194 0 0.167442 0 0 -42.35 0 0
0.0248 0.08852873289 0.007735849194 0 0.163309 0 0 -40.3 0 0
0.0249 0.08854486535 0.007735849194 0 0.159372 0 0 -38.45 0 0
0.025 0.08856061359 0.007735849194 0 0.155624 0 0 -36.55 0 0
0.0251 0.08857599633 0.007735849194 0 0.152061 0 0 -34.7 0 0
0.0252 0.08859103179 0.007735849194 0 0.148677 0 0 -32.95 0 0
0.0253 0.08860573765 0.007735849194 0 0.145468 0 0 -31.25 0 0
0.0254 0.08862013104 0.007735849194 0 0.142427 0 0 -29.6 0 0
0.0255 0.0886342286 0.007735849194 0 0.13955 0 0 -27.95 0 0
0.0256 0.08864804643 0.007735849194 0 0.136832 0 0 -26.45 0 0
0.0257 0.08866160009 0.007735849194 0 0.134266 0 0 -24.9 0 0
0.0258 0.08867490464 0.007735849194 0 0.131849 0 0 -23.45 0 0
0.0259 0.08868797464 0.007735849194 0 0.129574 0 0 -22.05 0 0
0.026 0.08870082402 0.007735849194 0 0.127436 0 0 -20.7 0 0
0.0261 0.08871346628 0.007735849194 0 0.125431 0 0 -19.4 0 0
0.0262 0.0887259144 0.007735849194 0 0.123552 0 0 -18.15 0 0
0.0263 0.08873818079 0.007735849194 0 0.121795 0 0 -17 0 0
0.0264 0.08875027735 0.007735849194 0 0.120155 0 0 -15.85 0 0
0.0265 0.08876221544 0.007735849194 0 0.118625 0 0 -14.75 0 0
0.0266 0.08877400592 0.007735849194 0 0.117202 0 0 -13.7 0 0
0.0267 0.08878565912 0.007735849194 0 0.115879 0 0 -12.75 0 0
0.0268 0.08879718486 0.007735849194 0 0.114651 0 0 -11.85 0 0
0.0269 0.0888085924 0.007735849194 0 0.113514 0 0 -10.95 0 0
0.027 0.08881989046 0.007735849194 0 0.112461 0 0 -10.15 0 0
0.0271 0.08883108729 0.007735849194 0 0.111488 0 0 -9.35 0 0
0.0272 0.08884219061 0.007735849194 0 0.11059 0 0 -8.65 0 0
0.0273 0.08885320758 0.007735849194 0 0.109761 0 0 -8 0 0
0.0274 0.08886414486 0.007735849194 0 0.108995 0 0 -7.35 0 0
0.0275 0.08887500858 0.007735849194 0 0.108288 0 0 -6.8 0 0
0.0276 0.08888580433 0.007735849194 0 0.107635 0 0 -6.3 0 0
0.0277 0.08889653719 0.007735849194 0 0.10703 0 0 -5.8 0 0
0.0278 0.08890721174 0.007735849194 0 0.106468 0 0 -5.45 0 0
0.0279 0.08891783197 0.007735849194 0 0.105943 0 0 -5.1 0 0
0.028 0.0889284014 0.007735849194 0 0.105451 0 0 -4.8 0 0
0.0281 0.08893892301 0.007735849194 0 0.104985 0 0 -4.55 0 0
0.0282 0.08894939922 0.007735849194 0 0.104542 0 0 -4.35 0 0
0.0283 0.08895983201 0.007735849194 0 0.104116 0 0 -4.2 0 0
0.0284 0.08897022276 0.007735849194 0 0.103701 0 0 -4.1 0 0
0.0285 0.08898057237 0.007735849194 0 0.103292 0 0 -4.05 0 0
0.0286 0.08899088115 0.007735849194 0 0.102884 0 0 -4.1 0 0
0.0287 0.08900114895 0.007735849194 0 0.102471 0 0 -4.15 0 0
0.0288 0.08901137509 0.007735849194 0 0.102049 0 0 -4.3 0 0
0.0289 0.08902155831 0.007735849194 0 0.101612 0 0 -4.45 0 0
0.029 0.0890316969 0.007735849194 0 0.101156 0 0 -4.65 0 0
0.0291 0.08904178858 0.007735849194 0 0.100673 0 0 -4.95 0 0
0.0292 0.08905183055 0.007735849194 0 0.100161 0 0 -5.3 0 0
0.0293 0.08906181924 0.007735849194 0 0.0996013 0 0 -5.98 0 0
0.0294 0.08907174811 0.007735849194 0 0.0989629 0 0 -6.785 0 0
0.0295 0.08908160918 0.007735849194 0 0.0982456 0 0 -7.56 0 0
0.0296 0.08909139465 0.007735849194 0 0.0974514 0 0 -8.32 0 0
0.0297 0.08910109695 0.007735849194 0 0.0965824 0 0 -9.055 0 0
0.0298 0.08911070871 0.007735849194 0 0.095641 0 0 -9.77 0 0
0.0299 0.08912022278 0.007735849194 0 0.0946291 0 0 -10.465 0 0
0.03 0.08912963224 0.007735849194 0 0.0935489 0 0 -11.135 0 0
0.0301 0.08913893036 0.007735849194 0 0.0924027 0 0 -11.785 0 0
0.0302 0.08914811063 0.007735849194 0 0.0911925 0 0 -12.415 0 0
0.0303 0.08915716678 0.007735849194 0 0.0899205 0 0 -13.025 0 0
0.0304 0.08916609273 0.007735849194 0 0.0885888 0 0 -13.61 0 0
0.0305 0.08917488261 0.007735849194 0 0.0871996 0 0 -14.17 0 0
0.0306 0.08918353079 0.007735849194 0 0.085755 0 0 -14.715 0 0
0.0307 0.08919203183 0.007735849194 0 0.0842572 0 0 -15.235 0 0
0.0308 0.08920038052 0.007735849194 0 0.0827084 0 0 -15.735 0 0
0.0309 0.08920857187 0.007735849194 0 0.0811106 0 0 -16.215 0 0
0.031 0.08921660108 0.007735849194 0 0.0794661 0 0 -16.675 0 0
0.0311 0.08922446359 0.007735849194 0 0.0777769 0 0 -17.11 0 0
0.0312 0.08923215504 0.007735849194 0 0.0760453 0 0 -17.52 0 0
0.0313 0.08923967129 0.007735849194 0 0.0742733 0 0 -17.915 0 0
0.0314 0.08924700842 0.007735849194 0 0.0724632 0 0 -18.285 0 0
0.0315 0.08925416272 0.007735849194 0 0.070617 0 0 -18.635 0 0
0.0316 0.0892611307 0.007735849194 0 0.068737 0 0 -18.965 0 0
0.0317 0.08926790906 0.007735849194 0 0.0668252 0 0 -19.27 0 0
0.0318 0.08927449475 0.007735849194 0 0.0648839 0 0 -19.555 0 0
0.0319 0.08928088491 0.007735849194 0 0.0629151 0 0 -19.815 0 0
0.032 0.08928707692 0.007735849194 0 0.060921 0 0 -20.06 0 0
0.0321 0.08929306834 0.007735849194 0 0.0589038 0 0 -20.28 0 0
0.0322 0.08929885698 0.007735849194 0 0.0568656 0 0 -20.48 0 0
0.0323 0.08930444084 0.007735849194 0 0.0548086 0 0 -20.655 0 0
0.0324 0.08930981814 0.007735849194 0 0.0527349 0 0 -20.815 0 0
0.0325 0.08931498733 0.007735849194 0 0.0506467 0 0 -20.95 0 0
