t px py theta vx vy omega ax ay alpha 
0.0001 -0.04145635106 2.362435193e-06 0 -0.0118 0 0 -132.8935 0 0
0.0002 -0.04145823808 2.362435193e-06 0 -0.0295 0 0 -295 0 0
0.0003 -0.04146228006 2.362435193e-06 0 -0.0472 0 0 -17.5925 0 0
0.0004 -0.04146728671 2.362435193e-06 0 -0.0531 0 0 -56.3465 0 0
0.0005 -0.04147288999 2.362435193e-06 0 -0.059 0 0 -64.6085 0 0
0.0006 -0.04147906924 2.362435193e-06 0 -0.0649 0 0 -140.174 0 0
0.0007 -0.04148560689 2.362435193e-06 0 -0.06859403 0 0 -1104.716 0 0
0.0008 -0.04150324345 2.362435193e-06 0 -0.28743 0 0 -2086.985 0 0
0.0009 -0.04154270505 2.362435193e-06 0 -0.501274 0 0 -2107.995 0 0
0.001 -0.04160331518 2.362435193e-06 0 -0.710126 0 0 -2063.165 0 0
0.0011 -0.04168456189 2.362435193e-06 0 -0.913986 0 0 -2013.61 0 0
0.0012 -0.04178594507 2.362435193e-06 0 -1.112854 0 0 -1963.7 0 0
0.0013 -0.04190696545 2.362435193e-06 0 -1.30673 0 0 -1913.8 0 0
0.0014 -0.04204712383 2.362435193e-06 0 -1.495614 0 0 -1863.9 0 0
0.0015 -0.04220592102 2.362435193e-06 0 -1.679506 0 0 -1814 0 0
0.0016 -0.0423828578 2.362435193e-06 0 -1.858406 0 0 -1764 0 0
0.0017 -0.04257743499 2.362435193e-06 0 -2.032314 0 0 -1714.1 0 0
0.0018 -0.04278915337 2.362435193e-06 0 -2.20123 0 0 -1664.2 0 0
0.0019 -0.04301751375 2.362435193e-06 0 -2.365154 0 0 -1614.3 0 0
0.002 -0.04326201694 2.362435193e-06 0 -2.524086 0 0 -1564.4 0 0
0.0021 -0.04352216372 2.362435193e-06 0 -2.678026 0 0 -1514.4 0 0
0.0022 -0.04379745491 2.362435193e-06 0 -2.826974 0 0 -1464.5 0 0
0.0023 -0.04408739129 2.362435193e-06 0 -2.97093 0 0 -1414.6 0 0
0.0024 -0.04439147367 2.362435193e-06 0 -3.109894 0 0 -1364.7 0 0
0.0025 -0.04470920286 2.362435193e-06 0 -3.243866 0 0 -1314.75 0 0
0.0026 -0.04504006116 2.362435193e-06 0 -3.372178 0 0 -1248.8 0 0
0.0027 -0.04538341262 2.362435193e-06 0 -3.493763 0 0 -1182.9 0 0
0.0028 -0.0457385928 2.362435193e-06 0 -3.608753 0 0 -1116.9 0 0
0.0029 -0.04610494236 2.362435193e-06 0 -3.71715 0 0 -1051 0 0
0.003 -0.04648180182 2.362435193e-06 0 -3.818951 0 0 -985.05 0 0
0.0031 -0.04686851176 2.362435193e-06 0 -3.914159 0 0 -919.1 0 0
0.0032 -0.04726441275 2.362435193e-06 0 -4.002773 0 0 -853.2 0 0
0.0033 -0.04766884537 2.362435193e-06 0 -4.084792 0 0 -787.2 0 0
0.0034 -0.04808115024 2.362435193e-06 0 -4.160217 0 0 -721.3 0 0
0.0035 -0.04850066782 2.362435193e-06 0 -4.229047 0 0 -655.3 0 0
0.0036 -0.04892673879 2.362435193e-06 0 -4.291284 0 0 -589.4 0 0
0.0037 -0.04935870369 2.362435193e-06 0 -4.346926 0 0 -523.45 0 0
0.0038 -0.04979590309 2.362435193e-06 0 -4.395974 0 0 -457.5 0 0
0.0039 -0.05023767757 2.362435193e-06 0 -4.438428 0 0 -391.6 0 0
0.004 -0.05068336776 2.362435193e-06 0 -4.474288 0 0 -325.6 0 0
0.0041 -0.05113231416 2.362435193e-06 0 -4.503553 0 0 -259.7 0 0
0.0042 -0.05158385743 2.362435193e-06 0 -4.526224 0 0 -193.7 0 0
0.0043 -0.05203733809 2.362435193e-06 0 -4.542301 0 0 -127.8 0 0
0.0044 -0.05249209668 2.362435193e-06 0 -4.551783 0 0 -61.9 0 0
0.0045 -0.05294747385 2.362435193e-06 0 -4.554672 0 0 4.1 0 0
0.0046 -0.05340281013 2.362435193e-06 0 -4.550966 0 0 70 0 0
0.0047 -0.05385744611 2.362435193e-06 0 -4.540666 0 0 136 0 0
0.0048 -0.05431072237 2.362435193e-06 0 -4.523771 0 0 201.9 0 0
0.0049 -0.05476197947 2.362435193e-06 0 -4.500283 0 0 267.9 0 0
0.005 -0.05521055799 2.362435193e-06 0 -4.4702 0 0 333.6 0 0
0.0051 -0.05565589097 2.362435193e-06 0 -4.436861 0 0 319.7 0 0
0.0052 -0.05609800263 2.362435193e-06 0 -4.405606 0 0 305.5 0 0
0.0053 -0.05653705966 2.362435193e-06 0 -4.375769 0 0 291.3 0 0
0.0054 -0.0569732038 2.362435193e-06 0 -4.347348 0 0 277.1 0 0
0.0055 -0.05740657672 2.362435193e-06 0 -4.320344 0 0 262.95 0 0
0.0056 -0.05783732012 2.362435193e-06 0 -4.294757 0 0 248.8 0 0
0.0057 -0.05826557566 2.362435193e-06 0 -4.270588 0 0 234.6 0 0
0.0058 -0.05869148509 2.362435193e-06 0 -4.247835 0 0 220.4 0 0
0.0059 -0.05911519012 2.362435193e-06 0 -4.226499 0 0 206.3 0 0
0.006 -0.05953683236 2.362435193e-06 0 -4.20658 0 0 192.1 0 0
0.0061 -0.05995655357 2.362435193e-06 0 -4.188078 0 0 177.9 0 0
0.0062 -0.06037449547 2.362435193e-06 0 -4.170993 0 0 163.8 0 0
0.0063 -0.06079079968 2.362435193e-06 0 -4.155325 0 0 149.6 0 0
0.0064 -0.06120560792 2.362435193e-06 0 -4.141074 0 0 135.4 0 0
0.0065 -0.06161906195 2.362435193e-06 0 -4.12824 0 0 121.3 0 0
0.0066 -0.06203130338 2.362435193e-06 0 -4.116823 0 0 107.1 0 0
0.0067 -0.06244247399 2.362435193e-06 0 -4.106823 0 0 92.9 0 0
0.0068 -0.0628527154 2.362435193e-06 0 -4.098239 0 0 78.75 0 0
0.0069 -0.06326216932 2.362435193e-06 0 -4.091073 0 0 64.6 0 0
0.007 -0.06367097746 2.362435193e-06 0 -4.085324 0 0 50.4 0 0
0.0071 -0.06407928149 2.362435193e-06 0 -4.080991 0 0 36.2 0 0
0.0072 -0.06448722315 2.362435193e-06 0 -4.078076 0 0 22.1 0 0
0.0073 -0.06489494408 2.362435193e-06 0 -4.076577 0 0 7.9 0 0
0.0074 -0.06530258602 2.362435193e-06 0 -4.076496 0 0 -6.3 0 0
0.0075 -0.06571029067 2.362435193e-06 0 -4.077831 0 0 -20.6 0 0
0.0076 -0.06611828271 2.362435193e-06 0 -4.083579 0 0 -106.45 0 0
0.0077 -0.06652731729 2.362435193e-06 0 -4.098533 0 0 -192.6 0 0
0.0078 -0.06693827757 2.362435193e-06 0 -4.122093 0 0 -278.6 0 0
0.0079 -0.06735202415 2.362435193e-06 0 -4.154259 0 0 -364.7 0 0
0.008 -0.06776941771 2.362435193e-06 0 -4.195032 0 0 -450.8 0 0
0.0081 -0.06819131887 2.362435193e-06 0 -4.244411 0 0 -536.8 0 0
0.0082 -0.06861858825 2.362435193e-06 0 -4.302397 0 0 -622.9 0 0
0.0083 -0.06905208654 2.362435193e-06 0 -4.368989 0 0 -709 0 0
0.0084 -0.06949267434 2.362435193e-06 0 -4.444187 0 0 -795 0 0
0.0085 -0.06994121231 2.362435193e-06 0 -4.527992 0 0 -881.1 0 0
0.0086 -0.07039856107 2.362435193e-06 0 -4.620403 0 0 -967.1 0 0
0.0087 -0.07086558126 2.362435193e-06 0 -4.721421 0 0 -1053.2 0 0
0.0088 -0.07134313354 2.362435193e-06 0 -4.831045 0 0 -1139.3 0 0
0.0089 -0.07183207862 2.362435193e-06 0 -4.949276 0 0 -1225.3 0 0
0.009 -0.07233327703 2.362435193e-06 0 -5.076113 0 0 -1311.4 0 0
0.0091 -0.0728475895 2.362435193e-06 0 -5.211556 0 0 -1397.5 0 0
0.0092 -0.07337587658 2.362435193e-06 0 -5.355606 0 0 -1483.5 0 0
0.0093 -0.07391899896 2.362435193e-06 0 -5.508262 0 0 -1569.6 0 0
0.0094 -0.07447781731 2.362435193e-06 0 -5.669525 0 0 -1655.7 0 0
0.0095 -0.07505319228 2.362435193e-06 0 -5.839394 0 0 -1741.7 0 0
0.0096 -0.07564598443 2.362435193e-06 0 -6.017869 0 0 -1827.8 0 0
0.0097 -0.07625705446 2.362435193e-06 0 -6.204951 0 0 -1913.85 0 0
0.0098 -0.07688726303 2.362435193e-06 0 -6.40064 0 0 -1999.9 0 0
0.0099 -0.07753747073 2.362435193e-06 0 -6.604935 0 0 -2086 0 0
0.01 -0.07820853823 2.362435193e-06 0 -6.817836 0 0 -2171.6 0 0
0.0101 -0.07890110571 2.362435193e-06 0 -7.031383 0 0 -2067.2 0 0
0.0102 -0.0796144034 2.362435193e-06 0 -7.232839 0 0 -1962.05 0 0
0.0103 -0.08034732185 2.362435193e-06 0 -7.423797 0 0 -1857.05 0 0
0.0104 -0.08109881113 2.362435193e-06 0 -7.604256 0 0 -1752.1 0 0
0.0105 -0.0818678214 2.362435193e-06 0 -7.774217 0 0 -1647.15 0 0
0.0106 -0.0826533028 2.362435193e-06 0 -7.933679 0 0 -1542.15 0 0
0.0107 -0.08345420548 2.362435193e-06 0 -8.082642 0 0 -1437.15 0 0
0.0108 -0.08426947955 2.362435193e-06 0 -8.221107 0 0 -1332.15 0 0
0.0109 -0.08509807515 2.362435193e-06 0 -8.349073 0 0 -1227.15 0 0
0.011 -0.08593894243 2.362435193e-06 0 -8.46654 0 0 -1122.15 0 0
0.0111 -0.0867910315 2.362435193e-06 0 -8.573509 0 0 -1017.15 0 0
0.0112 -0.0876532925 2.362435193e-06 0 -8.669979 0 0 -912.25 0 0
0.0113 -0.08852467558 2.362435193e-06 0 -8.75595 0 0 -807.25 0 0
0.0114 -0.08940413085 2.362435193e-06 0 -8.831423 0 0 -702.25 0 0
0.0115 -0.09029060845 2.362435193e-06 0 -8.896397 0 0 -597.25 0 0
0.0116 -0.09118305855 2.362435193e-06 0 -8.950873 0 0 -492.25 0 0
0.0117 -0.09208043133 2.362435193e-06 0 -8.99485 0 0 -387.25 0 0
0.0118 -0.09298167683 2.362435193e-06 0 -9.028328 0 0 -282.25 0 0
0.0119 -0.09388574523 2.362435193e-06 0 -9.051308 0 0 -177.3 0 0
0.012 -0.09479158663 2.362435193e-06 0 -9.063789 0 0 -72.35 0 0
0.0121 -0.09569815122 2.362435193e-06 0 -9.065771 0 0 32.65 0 0
0.0122 -0.09660438912 2.362435193e-06 0 -9.057255 0 0 137.65 0 0
0.0123 -0.0975092505 2.362435193e-06 0 -9.03824 0 0 242.65 0 0
0.0124 -0.0984116854 2.362435193e-06 0 -9.008726 0 0 347.65 0 0
0.0125 -0.099310644 2.362435193e-06 0 -8.968714 0 0 452.4 0 0
0.0126 -0.1002051885 2.362435193e-06 0 -8.922249 0 0 460.6 0 0
0.0127 -0.1010950978 2.362435193e-06 0 -8.875806 0 0 468.4 0 0
0.0128 -0.1019803233 2.362435193e-06 0 -8.828575 0 0 476.25 0 0
0.0129 -0.1028607864 2.362435193e-06 0 -8.780556 0 0 484.1 0 0
0.013 -0.1037364081 2.362435193e-06 0 -8.731749 0 0 492 0 0
0.0131 -0.1046071098 2.362435193e-06 0 -8.682154 0 0 499.9 0 0
0.0132 -0.1054728126 2.362435193e-06 0 -8.631771 0 0 507.75 0 0
0.0133 -0.1063334377 2.362435193e-06 0 -8.580601 0 0 515.65 0 0
0.0134 -0.1071889063 2.362435193e-06 0 -8.528642 0 0 523.5 0 0
0.0135 -0.1080391398 2.362435193e-06 0 -8.475896 0 0 531.4 0 0
0.0136 -0.1088840591 2.362435193e-06 0 -8.422362 0 0 539.3 0 0
0.0137 -0.1097235857 2.362435193e-06 0 -8.36804 0 0 547.2 0 0
0.0138 -0.1105576407 2.362435193e-06 0 -8.31293 0 0 555 0 0
0.0139 -0.1113861452 2.362435193e-06 0 -8.257032 0 0 562.9 0 0
0.014 -0.1122090207 2.362435193e-06 0 -8.200346 0 0 570.8 0 0
0.0141 -0.1130261881 2.362435193e-06 0 -8.142873 0 0 578.7 0 0
0.0142 -0.1138375688 2.362435193e-06 0 -8.084611 0 0 586.55 0 0
0.0143 -0.1146430839 2.362435193e-06 0 -8.025562 0 0 594.4 0 0
0.0144 -0.1154426548 2.362435193e-06 0 -7.965725 0 0 602.3 0 0
0.0145 -0.1162362025 2.362435193e-06 0 -7.9051 0 0 610.2 0 0
0.0146 -0.1170236484 2.362435193e-06 0 -7.843687 0 0 618.1 0 0
0.0147 -0.1178049135 2.362435193e-06 0 -7.781486 0 0 625.95 0 0
0.0148 -0.1185799192 2.362435193e-06 0 -7.718497 0 0 633.8 0 0
0.0149 -0.1193485866 2.362435193e-06 0 -7.654721 0 0 641.7 0 0
0.015 -0.1201108369 2.362435193e-06 0 -7.590156 0 0 649.5 0 0
0.0151 -0.1208666251 2.362435193e-06 0 -7.52602 0 0 628.3 0 0
0.0152 -0.1216161213 2.362435193e-06 0 -7.464256 0 0 606.95 0 0
0.0153 -0.1223595478 2.362435193e-06 0 -7.404623 0 0 585.7 0 0
0.0154 -0.1230971174 2.362435193e-06 0 -7.34712 0 0 564.4 0 0
0.0155 -0.1238290432 2.362435193e-06 0 -7.291748 0 0 543.05 0 0
0.0156 -0.1245555383 2.362435193e-06 0 -7.238505 0 0 521.75 0 0
0.0157 -0.1252768156 2.362435193e-06 0 -7.187393 0 0 500.45 0 0
0.0158 -0.1259930882 2.362435193e-06 0 -7.13841 0 0 479.15 0 0
0.0159 -0.126704569 2.362435193e-06 0 -7.091558 0 0 457.85 0 0
0.016 -0.1274114711 2.362435193e-06 0 -7.046836 0 0 436.55 0 0
0.0161 -0.1281140075 2.362435193e-06 0 -7.004244 0 0 415.25 0 0
0.0162 -0.1288123913 2.362435193e-06 0 -6.963782 0 0 393.95 0 0
0.0163 -0.1295068353 2.362435193e-06 0 -6.925451 0 0 372.65 0 0
0.0164 -0.1301975528 2.362435193e-06 0 -6.889249 0 0 351.35 0 0
0.0165 -0.1308847565 2.362435193e-06 0 -6.855178 0 0 330.05 0 0
0.0166 -0.1315686597 2.362435193e-06 0 -6.823236 0 0 308.75 0 0
0.0167 -0.1322494752 2.362435193e-06 0 -6.793425 0 0 287.45 0 0
0.0168 -0.1329274161 2.362435193e-06 0 -6.765744 0 0 266.15 0 0
0.0169 -0.1336026954 2.362435193e-06 0 -6.740194 0 0 244.85 0 0
0.017 -0.1342755262 2.362435193e-06 0 -6.716773 0 0 223.55 0 0
0.0171 -0.1349461214 2.362435193e-06 0 -6.695482 0 0 202.25 0 0
0.0172 -0.135614694 2.362435193e-06 0 -6.676322 0 0 180.95 0 0
0.0173 -0.1362814571 2.362435193e-06 0 -6.659292 0 0 159.65 0 0
0.0174 -0.1369466237 2.362435193e-06 0 -6.644391 0 0 138.35 0 0
0.0175 -0.1376104067 2.362435193e-06 0 -6.631621 0 0 117.1 0 0
0.0176 -0.1382729985 2.362435193e-06 0 -6.620232 0 0 113.75 0 0
0.0177 -0.1389344586 2.362435193e-06 0 -6.609024 0 0 110.45 0 0
0.0178 -0.1395948145 2.362435193e-06 0 -6.598148 0 0 107.15 0 0
0.0179 -0.1402540992 2.362435193e-06 0 -6.587602 0 0 103.75 0 0
0.018 -0.140912346 2.362435193e-06 0 -6.577388 0 0 100.5 0 0
0.0181 -0.1415695879 2.362435193e-06 0 -6.567506 0 0 97.15 0 0
0.0182 -0.1422258581 2.362435193e-06 0 -6.557954 0 0 93.85 0 0
0.0183 -0.1428811899 2.362435193e-06 0 -6.548734 0 0 90.55 0 0
0.0184 -0.1435356161 2.362435193e-06 0 -6.539846 0 0 87.25 0 0
0.0185 -0.14418917 2.362435193e-06 0 -6.531288 0 0 83.9 0 0
0.0186 -0.1448418848 2.362435193e-06 0 -6.523062 0 0 80.6 0 0
0.0187 -0.1454937936 2.362435193e-06 0 -6.515167 0 0 77.3 0 0
0.0188 -0.1461449294 2.362435193e-06 0 -6.507604 0 0 73.95 0 0
0.0189 -0.1467953254 2.362435193e-06 0 -6.500372 0 0 70.65 0 0
0.019 -0.1474450148 2.362435193e-06 0 -6.493471 0 0 67.35 0 0
0.0191 -0.1480940307 2.362435193e-06 0 -6.486902 0 0 64.05 0 0
0.0192 -0.1487424063 2.362435193e-06 0 -6.480664 0 0 60.75 0 0
0.0193 -0.1493901746 2.362435193e-06 0 -6.474757 0 0 57.4 0 0
0.0194 -0.1500373688 2.362435193e-06 0 -6.469181 0 0 54.1 0 0
0.0195 -0.150684022 2.362435193e-06 0 -6.463937 0 0 50.8 0 0
0.0196 -0.1513301673 2.362435193e-06 0 -6.459024 0 0 47.45 0 0
0.0197 -0.1519758379 2.362435193e-06 0 -6.454443 0 0 44.15 0 0
0.0198 -0.1526210669 2.362435193e-06 0 -6.450192 0 0 40.85 0 0
0.0199 -0.1532658875 2.362435193e-06 0 -6.446274 0 0 37.55 0 0
0.02 -0.1539103327 2.362435193e-06 0 -6.442686 0 0 34.15 0 0
0.0201 -0.154554463 2.362435193e-06 0 -6.440412 0 0 7.35 0 0
0.0202 -0.1551985126 2.362435193e-06 0 -6.441023 0 0 -19.55 0 0
0.0203 -0.1558427577 2.362435193e-06 0 -6.444323 0 0 -46.45 0 0
0.0204 -0.1564874672 2.362435193e-06 0 -6.450311 0 0 -73.35 0 0
0.0205 -0.1571329099 2.362435193e-06 0 -6.458987 0 0 -100.25 0 0
0.0206 -0.1577793547 2.362435193e-06 0 -6.470353 0 0 -127.05 0 0
0.0207 -0.1584270705 2.362435193e-06 0 -6.484406 0 0 -153.95 0 0
0.0208 -0.1590763261 2.362435193e-06 0 -6.501149 0 0 -180.85 0 0
0.0209 -0.1597273903 2.362435193e-06 0 -6.52058 0 0 -207.75 0 0
0.021 -0.1603805321 2.362435193e-06 0 -6.542699 0 0 -234.65 0 0
0.0211 -0.1610360202 2.362435193e-06 0 -6.567508 0 0 -261.55 0 0
0.0212 -0.1616941237 2.362435193e-06 0 -6.595004 0 0 -288.45 0 0
0.0213 -0.1623551112 2.362435193e-06 0 -6.62519 0 0 -315.3 0 0
0.0214 -0.1630192517 2.362435193e-06 0 -6.658064 0 0 -342.15 0 0
0.0215 -0.163686814 2.362435193e-06 0 -6.693626 0 0 -369.05 0 0
0.0216 -0.164358067 2.362435193e-06 0 -6.731877 0 0 -395.95 0 0
0.0217 -0.1650332795 2.362435193e-06 0 -6.772817 0 0 -422.85 0 0
0.0218 -0.1657127204 2.362435193e-06 0 -6.816445 0 0 -449.75 0 0
0.0219 -0.1663966586 2.362435193e-06 0 -6.862762 0 0 -476.6 0 0
0.022 -0.1670853628 2.362435193e-06 0 -6.911767 0 0 -503.5 0 0
0.0221 -0.167779102 2.362435193e-06 0 -6.963461 0 0 -530.35 0 0
0.0222 -0.1684781451 2.362435193e-06 0 -7.017843 0 0 -557.25 0 0
0.0223 -0.1691827607 2.362435193e-06 0 -7.074914 0 0 -584.15 0 0
0.0224 -0.169893218 2.362435193e-06 0 -7.134674 0 0 -611.05 0 0
0.0225 -0.1706097856 2.362435193e-06 0 -7.197122 0 0 -637.8 0 0
0.0226 -0.1713326666 2.362435193e-06 0 -7.25988 0 0 -607.75 0 0
0.0227 -0.1720616425 2.362435193e-06 0 -7.31914 0 0 -577.5 0 0
0.0228 -0.1727963934 2.362435193e-06 0 -7.375378 0 0 -547.3 0 0
0.0229 -0.173536617 2.362435193e-06 0 -7.428595 0 0 -517.1 0 0
0.023 -0.1742820112 2.362435193e-06 0 -7.47879 0 0 -486.8 0 0
0.0231 -0.1750322738 2.362435193e-06 0 -7.525964 0 0 -456.6 0 0
0.0232 -0.1757871028 2.362435193e-06 0 -7.570116 0 0 -426.4 0 0
0.0233 -0.1765461958 2.362435193e-06 0 -7.611246 0 0 -396.2 0 0
0.0234 -0.1773092508 2.362435193e-06 0 -7.649355 0 0 -366 0 0
0.0235 -0.1780759655 2.362435193e-06 0 -7.684442 0 0 -335.75 0 0
0.0236 -0.1788460379 2.362435193e-06 0 -7.716507 0 0 -305.55 0 0
0.0237 -0.1796191658 2.362435193e-06 0 -7.745551 0 0 -275.3 0 0
0.0238 -0.1803950469 2.362435193e-06 0 -7.771573 0 0 -245.1 0 0
0.0239 -0.1811733792 2.362435193e-06 0 -7.794574 0 0 -214.9 0 0
0.024 -0.1819538604 2.362435193e-06 0 -7.814553 0 0 -184.7 0 0
0.0241 -0.1827361885 2.362435193e-06 0 -7.83151 0 0 -154.5 0 0
0.0242 -0.1835200612 2.362435193e-06 0 -7.845446 0 0 -124.25 0 0
0.0243 -0.1843051765 2.362435193e-06 0 -7.85636 0 0 -94 0 0
0.0244 -0.185091232 2.362435193e-06 0 -7.864252 0 0 -63.8 0 0
0.0245 -0.1858779257 2.362435193e-06 0 -7.869123 0 0 -33.6 0 0
0.0246 -0.1866649553 2.362435193e-06 0 -7.870972 0 0 -3.4 0 0
0.0247 -0.1874520189 2.362435193e-06 0 -7.8698 0 0 26.85 0 0
0.0248 -0.1882388141 2.362435193e-06 0 -7.865606 0 0 57.05 0 0
0.0249 -0.1890250388 2.362435193e-06 0 -7.85839 0 0 87.25 0 0
0.025 -0.1898103908 2.362435193e-06 0 -7.848152 0 0 117.65 0 0
0.0251 -0.1905944898 2.362435193e-06 0 -7.832068 0 0 215.45 0 0
0.0252 -0.1913764549 2.362435193e-06 0 -7.805617 0 0 313.5 0 0
0.0253 -0.1921552848 2.362435193e-06 0 -7.769364 0 0 411.6 0 0
0.0254 -0.1929299993 2.362435193e-06 0 -7.723308 0 0 509.6 0 0
0.0255 -0.1936996181 2.362435193e-06 0 -7.667451 0 0 607.6 0 0
0.0256 -0.1944631611 2.362435193e-06 0 -7.601791 0 0 705.6 0 0
0.0257 -0.195219648 2.362435193e-06 0 -7.52633 0 0 803.6 0 0
0.0258 -0.1959680986 2.362435193e-06 0 -7.441066 0 0 901.65 0 0
0.0259 -0.1967075328 2.362435193e-06 0 -7.346 0 0 999.7 0 0
0.026 -0.1974369703 2.362435193e-06 0 -7.241132 0 0 1097.7 0 0
0.0261 -0.1981554309 2.362435193e-06 0 -7.126463 0 0 1195.7 0 0
0.0262 -0.1988619345 2.362435193e-06 0 -7.001991 0 0 1293.7 0 0
0.0263 -0.1995555007 2.362435193e-06 0 -6.867717 0 0 1391.75 0 0
0.0264 -0.2002351495 2.362435193e-06 0 -6.723641 0 0 1489.8 0 0
0.0265 -0.2008999005 2.362435193e-06 0 -6.569763 0 0 1587.8 0 0
0.0266 -0.2015487736 2.362435193e-06 0 -6.406082 0 0 1685.8 0 0
0.0267 -0.2021807886 2.362435193e-06 0 -6.2326 0 0 1783.8 0 0
0.0268 -0.2027949652 2.362435193e-06 0 -6.049316 0 0 1881.8 0 0
0.0269 -0.2033903234 2.362435193e-06 0 -5.856229 0 0 1979.9 0 0
0.027 -0.2039658827 2.362435193e-06 0 -5.653341 0 0 2077.9 0 0
0.0271 -0.2045206632 2.362435193e-06 0 -5.440651 0 0 2175.9 0 0
0.0272 -0.2050536844 2.362435193e-06 0 -5.218158 0 0 2273.9 0 0
0.0273 -0.2055639664 2.362435193e-06 0 -4.985863 0 0 2372 0 0
0.0274 -0.2060505287 2.362435193e-06 0 -4.743767 0 0 2470 0 0
0.0275 -0.2065123914 2.362435193e-06 0 -4.491868 0 0 2567.5 0 0
0.0276 -0.2069488022 2.362435193e-06 0 -4.238407 0 0 2468.45 0 0
0.0277 -0.2073604687 2.362435193e-06 0 -3.996568 0 0 2368.5 0 0
0.0278 -0.20774845 2.362435193e-06 0 -3.764703 0 0 2268.8 0 0
0.0279 -0.2081137435 2.362435193e-06 0 -3.542812 0 0 2169.05 0 0
0.028 -0.2084573465 2.362435193e-06 0 -3.330895 0 0 2069.3 0 0
0.0281 -0.2087802565 2.362435193e-06 0 -3.128951 0 0 1969.55 0 0
0.0282 -0.2090834708 2.362435193e-06 0 -2.936982 0 0 1869.8 0 0
0.0283 -0.2093679869 2.362435193e-06 0 -2.754986 0 0 1770.1 0 0
0.0284 -0.2096348021 2.362435193e-06 0 -2.582964 0 0 1670.35 0 0
0.0285 -0.2098849138 2.362435193e-06 0 -2.420916 0 0 1570.6 0 0
0.0286 -0.2101193195 2.362435193e-06 0 -2.268842 0 0 1470.9 0 0
0.0287 -0.2103390164 2.362435193e-06 0 -2.126742 0 0 1371.1 0 0
0.0288 -0.210545002 2.362435193e-06 0 -1.994616 0 0 1271.4 0 0
0.0289 -0.2107382737 2.362435193e-06 0 -1.872464 0 0 1171.65 0 0
0.029 -0.2109198289 2.362435193e-06 0 -1.760285 0 0 1071.9 0 0
0.0291 -0.2110906649 2.362435193e-06 0 -1.658081 0 0 972.2 0 0
0.0292 -0.2112517791 2.362435193e-06 0 -1.56585 0 0 872.4 0 0
0.0293 -0.211404169 2.362435193e-06 0 -1.483593 0 0 772.7 0 0
0.0294 -0.2115488319 2.362435193e-06 0 -1.41131 0 0 672.95 0 0
0.0295 -0.2116867652 2.362435193e-06 0 -1.349001 0 0 573.2 0 0
0.0296 -0.2118189662 2.362435193e-06 0 -1.296666 0 0 473.5 0 0
0.0297 -0.2119464325 2.362435193e-06 0 -1.254305 0 0 373.75 0 0
0.0298 -0.2120701613 2.362435193e-06 0 -1.221917 0 0 274 0 0
0.0299 -0.21219115 2.362435193e-06 0 -1.199504 0 0 174.3 0 0
0.03 -0.2123103962 2.362435193e-06 0 -1.187064 0 0 74.85 0 0
0.0301 -0.2124287448 2.362435193e-06 0 -1.179104 0 0 106.55 0 0
0.0302 -0.212546068 2.362435193e-06 0 -1.166831 0 0 138.8 0 0
0.0303 -0.2126620033 2.362435193e-06 0 -1.151344 0 0 170.9 0 0
0.0304 -0.2127762292 2.362435193e-06 0 -1.132644 0 0 203.1 0 0
0.0305 -0.2128884245 2.362435193e-06 0 -1.110731 0 0 235.2 0 0
0.0306 -0.2129982677 2.362435193e-06 0 -1.085604 0 0 267.3 0 0
0.0307 -0.2131054376 2.362435193e-06 0 -1.057264 0 0 299.5 0 0
0.0308 -0.2132096129 2.362435193e-06 0 -1.02571 0 0 331.6 0 0
0.0309 -0.213310472 2.362435193e-06 0 -0.9909432 0 0 363.735 0 0
0.031 -0.2134076938 2.362435193e-06 0 -0.9529625 0 0 395.875 0 0
0.0311 -0.2135009569 2.362435193e-06 0 -0.9117684 0 0 428.005 0 0
0.0312 -0.2135899398 2.362435193e-06 0 -0.8673608 0 0 460.145 0 0
