t px py theta vx vy omega ax ay alpha 
0 0.2621636034 -0.03031121372 0 0 0 0 0 0 0
1e-05 0.262163597 -0.03031120629 -2.109620212e-07 -0.001278111933 0.001485367677 -0.042166317 -116.5177581 135.4121412 -3844.050931
2e-05 0.2621635789 -0.03031118532 -8.063293475e-07 -0.00233114443 0.002709160806 -0.07690706929 -96.8803102 112.5907594 -3196.196966
3e-05 0.2621635512 -0.03031115309 -1.721316528e-06 -0.003215717776 0.003737182722 -0.1060902489 -82.3486493 95.70321451 -2716.79027
4e-05 0.2621635152 -0.03031111129 -2.907982823e-06 -0.003978117322 0.004623225059 -0.1312428728 -72.3260308 84.05594233 -2386.142721
5e-05 0.262163472 -0.03031106108 -4.333263449e-06 -0.004662238333 0.005418301545 -0.1538131021 -67.26595406 78.17598667 -2219.21586
6e-05 0.2621634221 -0.03031100305 -5.980465701e-06 -0.005323436107 0.006186744675 -0.1756271839 -70.03267991 81.39216855 -2310.506398
7e-05 0.2621633652 -0.03031093689 -7.85871865e-06 -0.006062890799 0.007046144466 -0.2000232069 -83.49009167 97.0330079 -2754.500838
8e-05 0.2621632999 -0.03031086102 -1.001242181e-05 -0.006993235464 0.008127403849 -0.2307171499 -104.7544998 121.747459 -3456.067277
9e-05 0.2621632241 -0.03031077298 -1.251173195e-05 -0.008157977176 0.009481092209 -0.2691444782 -116.5462827 135.4536958 -3845.129075
0.0001 0.2621631367 -0.03031067139 -1.539555536e-05 -0.009324159723 0.01083647721 -0.3076197027 -105.0013748 122.0386508 -3464.281834
0.00011 0.2621630388 -0.0303105576 -1.862580717e-05 -0.01025800683 0.01192186608 -0.3384301592 -83.74039568 97.3313347 -2762.879902
0.00012 0.2621629325 -0.03031043407 -2.213234689e-05 -0.01099896992 0.01278310481 -0.3628773477 -69.84084026 81.17905444 -2304.3378
0.00013 0.2621628193 -0.03031030243 -2.586932028e-05 -0.01165482457 0.01354544754 -0.3845169342 -71.98815572 83.67646918 -2375.211014
0.00014 0.2621626988 -0.03031016242 -2.984381474e-05 -0.01243873024 0.01445663309 -0.4103815106 -116.5311375 135.4476806 -3844.818402
0.00015 0.2621625667 -0.03031000886 -3.42027913e-05 -0.01398543136 0.01625439482 -0.461412975 -193.8688194 225.33681 -6396.445486
0.00016 0.2621624152 -0.03030983278 -3.920141371e-05 -0.01631608599 0.01896336109 -0.5383099969 -176.1199756 204.7159828 -5810.991603
0.00017 0.262162246 -0.03030963622 -4.478113719e-05 -0.01750785566 0.02034872432 -0.5776333154 -116.5103992 135.4394439 -3844.393
0.00018 0.2621620653 -0.03030942611 -5.074529836e-05 -0.01864629401 0.02167214998 -0.6151978578 -173.4420508 201.6145931 -5722.819786
0.00019 0.2621618672 -0.03030919584 -5.728174163e-05 -0.02097665946 0.0243810014 -0.6920889479 -233.0293865 270.8822985 -7688.962171
0.0002 0.2621616457 -0.03030893849 -6.458708416e-05 -0.02330687624 0.02708979377 -0.7689769883 -233.0136935 270.8760656 -7688.640267
0.00021 0.262161401 -0.03030865405 -7.266129156e-05 -0.02563692783 0.02979852053 -0.8458616403 -174.8139544 203.2421463 -5768.621713
0.00022 0.2621611388 -0.03030834928 -8.131236198e-05 -0.02680319725 0.03115465334 -0.8843502825 -116.4555616 135.4176633 -3843.268142
0.00023 0.262160865 -0.03030803097 -9.034775643e-05 -0.02796603782 0.0325068733 -0.9227269778 -174.6251032 203.0395885 -5762.667273
0.00024 0.2621605737 -0.03030769236 -9.99594178e-05 -0.03029564625 0.03521542404 -0.9996025396 -232.9503842 270.8509199 -7687.341646
0.00025 0.2621602591 -0.03030732667 -0.0001103397146 -0.03262504002 0.03792388952 -1.076473698 -232.928092 270.8420655 -7686.884385
0.00026 0.2621599212 -0.03030693389 -0.0001214887877 -0.0349542026 0.04063226317 -1.153340115 -189.9823648 220.9384326 -6270.156802
0.00027 0.2621595643 -0.03030651901 -0.0001332648795 -0.0364247291 0.04234267476 -1.201877691 -105.4474553 122.6824981 -3481.044655
0.00028 0.2621591968 -0.03030609187 -0.0001453890788 -0.03706319649 0.04308593092 -1.222961926 -40.18030827 46.81615222 -1327.554899
0.00029 0.2621588254 -0.03030566004 -0.0001576460354 -0.03722836172 0.04327900832 -1.228429332 -10.78649794 12.64714299 -357.677844
0.0003 0.2621584528 -0.03030522696 -0.0001699387602 -0.03727893292 0.04333887635 -1.230115616 -13.75380014 16.09740907 -455.6016685
0.00031 0.2621580789 -0.03030479226 -0.0001822770446 -0.03750342784 0.04360095257 -1.237541162 -31.55000626 36.78873201 -1042.870183
0.00032 0.2621577019 -0.03030435388 -0.0001947196152 -0.03790992256 0.04407464682 -1.250972804 -46.64842695 54.34569005 -1541.150269
0.00033 0.2621573201 -0.03030391007 -0.0002073163004 -0.03843638923 0.04468786353 -1.268364021 -55.54462674 64.69331548 -1834.78987
0.00034 0.2621569328 -0.03030345978 -0.0002200964643 -0.03902081139 0.04536851166 -1.287668526 -58.23976031 67.83206693 -1923.812671
0.00035 0.2621565397 -0.03030300272 -0.0002330690095 -0.03960118433 0.04604450483 -1.306840273 -55.39478614 64.5295242 -1830.015311
0.00036 0.2621561411 -0.0303025392 -0.0002462245564 -0.04012870998 0.04665910328 -1.324268891 -50.30981586 58.62202927 -1662.289907
0.00037 0.2621557374 -0.03030206982 -0.0002595463325 -0.04060738337 0.0472169465 -1.340086127 -46.28284066 53.94417515 -1529.470287
0.00038 0.2621553291 -0.03030159505 -0.0002730210557 -0.04105436853 0.04773798748 -1.354858332 -43.97328557 51.26293254 -1453.321639
0.00039 0.2621549164 -0.03030111514 -0.0002866411112 -0.04148684979 0.04824220543 -1.369152574 -43.38120043 50.57862348 -1433.849915
0.0004 0.2621544993 -0.03030063019 -0.0003004045516 -0.04192199218 0.0487495598 -1.383535323 -44.30688209 51.65929344 -1464.468843
0.00041 0.2621540779 -0.03030014006 -0.0003143144388 -0.04237298622 0.04927539082 -1.398441926 -45.75609512 53.34898572 -1512.369375
0.00042 0.2621536518 -0.0302996446 -0.000328375563 -0.04283711302 0.04981653909 -1.413782689 -46.73451005 54.49140398 -1544.735604
0.00043 0.2621532211 -0.03029914369 -0.0003425911606 -0.04330767578 0.05036521864 -1.429336625 -47.04331506 54.85525001 -1555.004471
0.00044 0.2621527857 -0.0302986373 -0.0003569622586 -0.04377797911 0.05091364401 -1.444882774 -46.68265488 54.44058129 -1543.178945
0.00045 0.2621523456 -0.03029812546 -0.0003714876746 -0.04424132911 0.05145403036 -1.460200209 -45.78844184 53.40535359 -1513.74299
0.00046 0.2621519009 -0.03029760828 -0.0003861644649 -0.04469374847 0.05198175129 -1.475157645 -45.03996542 52.5395399 -1489.115784
0.00047 0.2621514517 -0.03029708585 -0.0004009901668 -0.04514212849 0.05250482118 -1.489982526 -45.11629463 52.63302561 -1491.711979
0.00048 0.262150998 -0.03029655815 -0.0004159650399 -0.04559607377 0.05303441157 -1.504991872 -46.15376247 53.84453804 -1526.034033
0.00049 0.2621505397 -0.03029602507 -0.0004310925163 -0.04606520247 0.05358171144 -1.52050318 -48.15174834 56.17352845 -1592.064285
0.0005 0.2621500766 -0.03029548637 -0.0004463791989 -0.04655910676 0.05415788135 -1.536833117 -50.7651665 59.2187689 -1678.414979
0.00051 0.2621496084 -0.03029494175 -0.000461833723 -0.04708050358 0.05476608594 -1.554071434 -52.2716809 60.97685938 -1728.235418
0.00052 0.262149135 -0.03029439104 -0.0004774610705 -0.04760453991 0.05537741835 -1.571397816 -50.94915479 59.44417685 -1684.67406
0.00053 0.2621486564 -0.03029383437 -0.0004932568856 -0.04809948852 0.05595497021 -1.587764953 -46.4538982 54.22035009 -1536.376708
0.00054 0.2621481733 -0.03029327229 -0.0005092063386 -0.0485336221 0.05646182703 -1.602125437 -38.78591396 45.3047758 -1283.333557
0.00055 0.2621476862 -0.03029270568 -0.0005252841255 -0.04887521347 0.05686106837 -1.613431761 -29.18860242 34.14339622 -966.5806741
0.00056 0.2621471963 -0.03029213565 -0.0005414585709 -0.04911740145 0.05714469786 -1.6214572 -23.87262578 27.96159077 -791.1387874
0.00057 0.2621467039 -0.03029156282 -0.0005577121303 -0.04935266645 0.05742030037 -1.629254546 -29.04561842 33.98293157 -961.9566637
0.00058 0.2621462087 -0.0302909866 -0.0005740618847 -0.04969830544 0.05782435316 -1.640696162 -45.94604395 53.65049295 -1519.954327
0.00059 0.2621457088 -0.03029040501 -0.0005905636334 -0.05027156989 0.0584933033 -1.659653275 -74.57128437 86.96353702 -2465.083017
0.0006 0.2621452015 -0.03028981473 -0.0006073118885 -0.05118970415 0.05956361318 -1.689997269 -110.2961277 128.5426484 -3644.683568
0.00061 0.2621446832 -0.03028921159 -0.00062442461 -0.05247746238 0.06106414433 -1.73254633 -130.0070408 151.4936117 -4295.682538
0.00062 0.2621441518 -0.0302885933 -0.0006419668995 -0.05378984128 0.06259348395 -1.775910844 -110.6009208 128.9275641 -3655.240115
0.00063 0.2621436094 -0.03028796212 -0.0006598747152 -0.05468951327 0.06364270851 -1.805651799 -47.46692684 55.47019549 -1570.982004
0.00064 0.2621430623 -0.03028732539 -0.000677939634 -0.05473925011 0.06370291579 -1.807331926 59.38284355 -68.87398981 1956.848631
0.00065 0.2621425211 -0.03028669555 -0.0006958088752 -0.05350196281 0.06226527099 -1.766517008 193.3882414 -224.8415819 6381.622204
0.00066 0.2621419992 -0.03028608819 -0.0007130399617 -0.0508715944 0.05920612751 -1.679701719 271.8113672 -316.1423139 8971.509192
0.00067 0.2621415045 -0.03028551245 -0.0007293738978 -0.04806574156 0.05594242714 -1.587086949 211.9462132 -246.4988921 6995.339045
0.00068 0.262141031 -0.03028496136 -0.0007450082929 -0.04663256474 0.05427610779 -1.539792777 -2.717072653 3.331505046 -92.47647962
0.00069 0.2621405573 -0.03028440993 -0.0007606519214 -0.04811987366 0.05600897406 -1.588932186 -372.1430909 433.3348123 -12291.21143
0.0007 0.2621400463 -0.03028381517 -0.0007775246477 -0.05407508034 0.06294266647 -1.785609905 -870.5897962 1013.582196 -28751.40342
0.00071 0.2621394483 -0.03028311906 -0.000797272479 -0.0655311324 0.07628040454 -2.163949238 -1369.515868 1594.495695 -45229.18964
0.00072 0.2621387133 -0.03028226349 -0.0008215431888 -0.08146475578 0.09483232531 -2.690180534 -1740.404207 2026.503645 -57481.14976
0.00073 0.2621378043 -0.03028120528 -0.0008515619727 -0.1003385423 0.1168102096 -3.313558408 -1957.5618 2279.700017 -64658.8813
0.00074 0.2621366995 -0.03027991909 -0.0008880466102 -0.1206153878 0.1404260856 -3.983345775 -2021.020788 2354.098784 -66763.06325
0.00075 0.2621353926 -0.0302783975 -0.0009312075343 -0.1407585674 0.16389203 -4.648811663 -1947.064101 2268.60269 -64330.55133
0.00076 0.262133891 -0.03027664905 -0.0009808015134 -0.1595565717 0.1857981004 -5.269954793 -1816.881887 2117.677056 -60041.68533
0.00077 0.2621322078 -0.03027468883 -0.001036399665 -0.177096174 0.2062455586 -5.849644733 -1711.581049 1995.742043 -56574.90065
0.00078 0.2621303533 -0.03027252903 -0.001097655306 -0.1937881222 0.2257129131 -6.401451361 -1647.36164 1921.672598 -54465.43724
0.00079 0.2621283342 -0.03027017707 -0.001164357486 -0.2100432584 0.2446789515 -6.938950437 -1624.207744 1895.471459 -53713.11691
0.0008 0.2621261526 -0.03026763556 -0.001236430964 -0.2262720157 0.2636222383 -7.475708343 -1637.731673 1912.056045 -54173.45643
0.00081 0.2621238072 -0.03026490284 -0.001313921767 -0.242797515 0.2829199225 -8.022411842 -1666.18199 1946.111966 -55128.26851
0.00082 0.2621212953 -0.03026197552 -0.001396925375 -0.2595952702 0.3025443244 -8.578265818 -1687.859071 1972.360528 -55860.67492
0.00083 0.2621186145 -0.03025885096 -0.001485515031 -0.2765543401 0.3223669913 -9.139618041 -1698.431685 1985.747627 -56227.4489
0.00084 0.2621157639 -0.03025552782 -0.001579727416 -0.2935635861 0.3422591504 -9.702808287 -1697.901167 1986.264723 -56228.47013
0.00085 0.2621127435 -0.03025200606 -0.001679562633 -0.3105120936 0.3620921783 -10.26418192 -1687.454869 1975.284106 -55902.78693
0.00086 0.2621095544 -0.03024828677 -0.00178498812 -0.3273124595 0.3817647433 -10.82085944 -1672.916699 1959.58617 -55442.73414
0.00087 0.2621061979 -0.03024437152 -0.001895957869 -0.3439702091 0.4012838146 -11.37303213 -1660.09056 1945.937309 -55040.13772
0.00088 0.2621026755 -0.03024026168 -0.002012431622 -0.3605140446 0.4206833993 -11.92165757 -1650.137078 1935.693151 -54733.39942
0.00089 0.2620989881 -0.03023595827 -0.002134378703 -0.3769727144 0.4399975834 -12.46769529 -1643.06047 1928.861406 -54522.70475
0.0009 0.2620951363 -0.03023146197 -0.002261778042 -0.3933750051 0.4592605282 -13.01210658 -1638.538532 1925.069265 -54397.45124
0.00091 0.2620911207 -0.03022677317 -0.002394617113 -0.4097432251 0.4784988649 -13.555639 -1635.013913 1922.501259 -54306.16964
0.00092 0.2620869416 -0.03022189211 -0.002532886788 -0.4260750263 0.4977104507 -14.09822471 -1630.933459 1919.343587 -54197.47667
0.00093 0.2620825994 -0.03021681913 -0.002676576198 -0.4423616444 0.5168856369 -14.63958342 -1625.989506 1915.235262 -54061.16672
0.00094 0.2620780946 -0.03021155461 -0.002825671713 -0.4585945743 0.5360150592 -15.1794431 -1620.188469 1910.181844 -53897.42104
0.00095 0.2620734278 -0.03020609909 -0.002980156959 -0.4747651802 0.5550891804 -15.71752707 -1613.611356 1904.275948 -53708.88774
0.00096 0.2620685996 -0.03020045313 -0.003140013082 -0.4908665758 0.5741004879 -16.25361625 -1606.679492 1898.008312 -53509.48526
0.00097 0.2620636107 -0.03019461737 -0.003305220143 -0.5068985478 0.5930492576 -16.78771225 -1599.805009 1891.859974 -53312.84478
0.00098 0.2620584619 -0.03018859243 -0.003475758478 -0.5228624558 0.6119375992 -17.31986866 -1593.070662 1885.927265 -53121.6997
0.00099 0.2620531538 -0.03018237889 -0.003651608973 -0.5387597428 0.6307677155 -17.85014179 -1586.484754 1880.219514 -52936.31933
0.001 0.262047687 -0.03017597734 -0.003832753089 -0.5545919344 0.6495419026 -18.37859063 -1580.020369 1874.704859 -52755.80691
0.00101 0.2620420622 -0.03016938831 -0.004019172775 -0.5703599357 0.6682617266 -18.90525356 -1573.568724 1869.255451 -52576.55095
0.00102 0.2620362801 -0.03016261236 -0.004210850106 -0.5860630977 0.6869269269 -19.43011735 -1567.017545 1863.739032 -52394.81903
0.00103 0.2620303412 -0.03015565003 -0.004407766909 -0.6017000794 0.705536424 -19.95314572 -1560.344568 1858.128611 -52209.8591
0.00104 0.2620242464 -0.03014850189 -0.004609904688 -0.6172697857 0.7240894173 -20.47431039 -1553.554843 1852.429203 -52021.82451
0.00105 0.2620179961 -0.03014116851 -0.00481724464 -0.6327709769 0.7425849278 -20.99357816 -1546.653447 1846.645832 -51830.86917
0.00106 0.2620115912 -0.03013365047 -0.00502976767 -0.6482026591 0.7610222552 -21.51092381 -1539.672665 1840.815487 -51638.05024
0.00107 0.2620050324 -0.03012594834 -0.005247454496 -0.6635642383 0.7794011602 -22.02633527 -1532.640772 1834.970543 -51444.29335
0.00108 0.2619983203 -0.03011806271 -0.005470285742 -0.678855286 0.7977215899 -22.53980584 -1525.566526 1829.120507 -51249.87719
0.00109 0.2619914556 -0.03010999418 -0.005698241967 -0.6940753835 0.8159834955 -23.05132905 -1518.450893 1823.26575 -51054.82215
0.0011 0.2619844391 -0.03010174331 -0.005931303666 -0.7092241219 0.8341868314 -23.5608986 -1511.290963 1817.402078 -50859.01965
0.00111 0.2619772714 -0.03009331071 -0.006169451258 -0.7243010243 0.8523314648 -24.06850583 -1504.083844 1811.525305 -50662.36159
0.00112 0.2619699533 -0.03008469696 -0.006412665079 -0.7393056237 0.8704172666 -24.57414229 -1496.82278 1805.626688 -50464.61129
0.00113 0.2619624856 -0.03007590264 -0.006660925352 -0.7542373084 0.888443929 -25.07779459 -1489.497192 1799.692944 -50265.40433
0.00114 0.2619548689 -0.03006692835 -0.006914212159 -0.7690953997 0.9064110573 -25.57944698 -1482.119761 1793.738161 -50065.14922
0.00115 0.261947104 -0.03005777469 -0.007172505473 -0.7838795391 0.9243186254 -26.07909425 -1474.695353 1787.76728 -49863.99562
0.00116 0.2619391916 -0.03004844226 -0.007435785179 -0.7985891459 0.9421663374 -26.57672365 -1467.213411 1781.767024 -49661.57956
0.00117 0.2619311325 -0.03003893164 -0.007704031036 -0.8132236501 0.9599539017 -27.07232267 -1459.678853 1775.742354 -49458.05171
0.00118 0.2619229275 -0.03002924345 -0.007977222691 -0.8277825692 0.9776811217 -27.56588159 -1452.096569 1769.698221 -49253.56224
0.00119 0.2619145772 -0.0300193783 -0.008255339695 -0.8422654312 0.9953478048 -28.05739089 -1444.467588 1763.635016 -49048.13271
0.0012 0.2619060825 -0.03000933678 -0.008538361507 -0.8566717742 1.012953762 -28.54684129 -1436.792935 1757.553133 -48841.7847
0.00121 0.2618974441 -0.0299991195 -0.00882626749 -0.8710011467 1.030498809 -29.03422371 -1429.112092 1751.498461 -48635.82163
0.00122 0.2618886628 -0.02998872708 -0.00911903705 -0.8852538753 1.047983673 -29.5195549 -1421.348996 1745.380326 -48427.69765
0.00123 0.2618797393 -0.02997816011 -0.009416649373 -0.8994279914 1.06540636 -30.00277496 -1413.505049 1739.19927 -48217.44199
0.00124 0.2618706745 -0.02996741923 -0.009719083435 -0.9135238436 1.082767604 -30.48390109 -1405.696295 1733.092039 -48008.91477
0.00125 0.2618614692 -0.02995650504 -0.01002631838 -0.927541787 1.100068147 -30.96295065 -1397.846763 1726.967997 -47799.57197
0.00126 0.261852124 -0.02994541815 -0.01033833328 -0.9414806531 1.117306912 -31.43989002 -1389.881051 1720.736732 -47586.88125
0.00127 0.2618426399 -0.02993415919 -0.01065510686 -0.9553392868 1.134482831 -31.91468586 -1381.915269 1714.535018 -47374.70403
0.00128 0.2618330176 -0.02992272877 -0.01097661791 -0.9691188385 1.151597563 -32.38738171 -1373.95002 1708.363077 -47163.05324
0.00129 0.2618232578 -0.02991112752 -0.01130284526 -0.9828181718 1.168650044 -32.85794463 -1365.910015 1702.130545 -46949.39877
0.0013 0.2618133615 -0.02989935605 -0.01163376755 -0.9964369268 1.185640127 -33.32636747 -1357.834501 1695.883219 -46735.03928
0.00131 0.2618033294 -0.029887415 -0.01196936333 -1.009974753 1.202567663 -33.79264327 -1349.72448 1689.621482 -46519.99581
0.00132 0.2617931624 -0.02987530498 -0.01230961111 -1.023431311 1.219432512 -34.25676531 -1341.580953 1683.345715 -46304.28933
0.00133 0.2617828612 -0.02986302663 -0.01265448931 -1.036806271 1.236234535 -34.71872705 -1333.442921 1677.101619 -46089.21351
0.00134 0.2617724266 -0.02985058057 -0.01300397643 -1.05010007 1.252974503 -35.17854762 -1325.235157 1670.798853 -45872.23948
0.00135 0.2617618595 -0.02983796743 -0.01335805077 -1.06331088 1.269650472 -35.63617 -1316.959095 1664.437972 -45653.39706
0.00136 0.2617511607 -0.02982518785 -0.01371669045 -1.07643916 1.286263223 -36.09161377 -1308.729336 1658.155149 -45436.51687
0.00137 0.261740331 -0.02981224245 -0.01407987378 -1.089485377 1.302813537 -36.54489859 -1300.470753 1651.860084 -45219.07212
0.00138 0.2617293713 -0.02979913187 -0.01444757901 -1.102448491 1.319300388 -36.99599356 -1292.108882 1645.462742 -44998.54952
0.00139 0.2617182824 -0.02978585674 -0.01481978409 -1.115327474 1.335722757 -37.44486802 -1283.758397 1639.099324 -44778.78111
0.0014 0.2617070651 -0.02977241769 -0.01519646705 -1.128123579 1.35208234 -37.89156764 -1275.419788 1632.770008 -44559.77746
0.00141 0.2616957203 -0.02975881538 -0.01557760598 -1.140835795 1.368378125 -38.33606213 -1267.018712 1626.384811 -44339.02776
0.00142 0.2616842488 -0.02974505042 -0.01596317882 -1.153463881 1.384610005 -38.77834681 -1258.593882 1619.989316 -44117.81963
0.00143 0.2616726514 -0.02973112347 -0.01635316343 -1.166007604 1.400777881 -39.21841721 -1250.146246 1613.583886 -43896.17296
0.00144 0.2616609289 -0.02971703515 -0.01674753766 -1.178466741 1.416881654 -39.65626903 -1241.676747 1607.168884 -43674.10749
0.00145 0.2616490824 -0.02970278612 -0.0171462793 -1.190841077 1.432921231 -40.09189818 -1233.186322 1600.744667 -43451.64284
0.00146 0.2616371125 -0.02968837702 -0.0175493661 -1.203130408 1.448896521 -40.52530078 -1224.713346 1594.356687 -43230.05978
0.00147 0.2616250201 -0.02967380848 -0.0179567759 -1.215335287 1.464808339 -40.95649831 -1216.183621 1587.915017 -43006.85038
0.00148 0.2616128061 -0.02965908114 -0.01836848639 -1.227454029 1.480654798 -41.38543683 -1207.598578 1581.420215 -42782.04429
0.00149 0.2616004714 -0.02964419567 -0.01878447508 -1.239487209 1.49643672 -41.81213828 -1199.070997 1575.007724 -42559.43489
0.0015 0.2615880167 -0.0296291527 -0.01920471972 -1.251435401 1.51215493 -42.23662465 -1190.526794 1568.587666 -42336.51657
0.00151 0.261575443 -0.02961395286 -0.019629198 -1.263297701 1.527808453 -42.65886783 -1181.89264 1562.070463 -42110.79907
0.00152 0.2615627511 -0.02959859682 -0.02005788737 -1.275073215 1.543396321 -43.07883994 -1173.28139 1555.59159 -41886.07725
0.00153 0.2615499419 -0.02958308522 -0.02049076534 -1.28676329 1.558920266 -43.49658868 -1164.693396 1549.151172 -41662.35875
