t px py theta vx vy omega ax ay alpha 
0 -0.04145576051 2.362435193e-06 0 0 0 0 0 0 0
1e-05 -0.0414557686 2.362435193e-06 0 -0.001617413 0 0 -147.45 0 0
2e-05 -0.04145579144 2.362435193e-06 0 -0.00295 0 0 -122.6001 0 0
3e-05 -0.04145582653 2.362435193e-06 0 -0.004069415 0 0 -104.2116 0 0
4e-05 -0.04145587205 2.362435193e-06 0 -0.005034232 0 0 -91.52925 0 0
5e-05 -0.04145592672 2.362435193e-06 0 -0.0059 0 0 -85.12695 0 0
6e-05 -0.04145598991 2.362435193e-06 0 -0.006736771 0 0 -88.6295 0 0
7e-05 -0.04145606195 2.362435193e-06 0 -0.00767259 0 0 -105.66145 0 0
8e-05 -0.04145614457 2.362435193e-06 0 -0.00885 0 0 -132.574 0 0
9e-05 -0.04145624044 2.362435193e-06 0 -0.01032407 0 0 -147.5 0 0
0.0001 -0.04145635106 2.362435193e-06 0 -0.0118 0 0 -132.8935 0 0
0.00011 -0.04145647497 2.362435193e-06 0 -0.01298194 0 0 -105.9905 0 0
0.00012 -0.04145660948 2.362435193e-06 0 -0.01391981 0 0 -88.403 0 0
0.00013 -0.04145675282 2.362435193e-06 0 -0.01475 0 0 -91.1235 0 0
0.00014 -0.04145690529 2.362435193e-06 0 -0.01574228 0 0 -147.5 0 0
0.00015 -0.0414570725 2.362435193e-06 0 -0.0177 0 0 -245.386 0 0
0.00016 -0.04145726425 2.362435193e-06 0 -0.02065 0 0 -222.9355 0 0
0.00017 -0.04145747829 2.362435193e-06 0 -0.02215871 0 0 -147.5 0 0
0.00018 -0.04145770708 2.362435193e-06 0 -0.0236 0 0 -219.5645 0 0
0.00019 -0.04145795783 2.362435193e-06 0 -0.02655 0 0 -295 0 0
0.0002 -0.04145823808 2.362435193e-06 0 -0.0295 0 0 -295 0 0
0.00021 -0.04145854783 2.362435193e-06 0 -0.03245 0 0 -221.3555 0 0
0.00022 -0.04145887972 2.362435193e-06 0 -0.03392711 0 0 -147.5 0 0
0.00023 -0.04145922636 2.362435193e-06 0 -0.0354 0 0 -221.1445 0 0
0.00024 -0.04145959511 2.362435193e-06 0 -0.03835 0 0 -295 0 0
0.00025 -0.04145999336 2.362435193e-06 0 -0.0413 0 0 -295 0 0
0.00026 -0.04146042111 2.362435193e-06 0 -0.04425 0 0 -240.6635 0 0
0.00027 -0.04146087292 2.362435193e-06 0 -0.04611327 0 0 -133.6655 0 0
0.00028 -0.0414613381 2.362435193e-06 0 -0.04692331 0 0 -51.046 0 0
0.00029 -0.04146180839 2.362435193e-06 0 -0.04713419 0 0 -13.8345 0 0
0.0003 -0.04146228006 2.362435193e-06 0 -0.0472 0 0 -17.5925 0 0
0.00031 -0.04146275349 2.362435193e-06 0 -0.04748604 0 0 -40.1285 0 0
0.00032 -0.04146323094 2.362435193e-06 0 -0.04800257 0 0 -59.252 0 0
0.00033 -0.0414637143 2.362435193e-06 0 -0.04867108 0 0 -70.5245 0 0
0.00034 -0.04146420473 2.362435193e-06 0 -0.04941306 0 0 -73.946 0 0
0.00035 -0.04146470254 2.362435193e-06 0 -0.05015 0 0 -70.352 0 0
0.00036 -0.04146520739 2.362435193e-06 0 -0.0508201 0 0 -63.9205 0 0
0.00037 -0.04146571863 2.362435193e-06 0 -0.05142841 0 0 -58.828 0 0
0.00038 -0.04146623576 2.362435193e-06 0 -0.05199666 0 0 -55.91 0 0
0.00039 -0.04146675848 2.362435193e-06 0 -0.05254661 0 0 -55.167 0 0
0.0004 -0.04146728671 2.362435193e-06 0 -0.0531 0 0 -56.3465 0 0
0.00041 -0.04146782058 2.362435193e-06 0 -0.05367354 0 0 -58.1895 0 0
0.00042 -0.04146836026 2.362435193e-06 0 -0.05426379 0 0 -59.4365 0 0
0.00043 -0.04146890589 2.362435193e-06 0 -0.05486227 0 0 -59.8355 0 0
0.00044 -0.04146945751 2.362435193e-06 0 -0.0554605 0 0 -59.3865 0 0
0.00045 -0.04147001506 2.362435193e-06 0 -0.05605 0 0 -58.2615 0 0
0.00046 -0.04147057844 2.362435193e-06 0 -0.05662573 0 0 -57.321 0 0
0.00047 -0.04147114755 2.362435193e-06 0 -0.05719642 0 0 -57.4255 0 0
0.00048 -0.0414717224 2.362435193e-06 0 -0.05777424 0 0 -58.748 0 0
0.00049 -0.04147230313 2.362435193e-06 0 -0.05837138 0 0 -61.288 0 0
0.0005 -0.04147288999 2.362435193e-06 0 -0.059 0 0 -64.6085 0 0
0.00051 -0.04147348331 2.362435193e-06 0 -0.05966355 0 0 -66.527 0 0
0.00052 -0.04147408328 2.362435193e-06 0 -0.06033054 0 0 -64.8605 0 0
0.00053 -0.04147468973 2.362435193e-06 0 -0.06096076 0 0 -59.1725 0 0
0.00054 -0.04147530211 2.362435193e-06 0 -0.06151399 0 0 -49.462 0 0
0.00055 -0.04147591943 2.362435193e-06 0 -0.06195 0 0 -37.304 0 0
0.00056 -0.04147654048 2.362435193e-06 0 -0.06226007 0 0 -30.5705 0 0
0.00057 -0.04147716458 2.362435193e-06 0 -0.06256141 0 0 -37.1325 0 0
0.00058 -0.0414777924 2.362435193e-06 0 -0.06300272 0 0 -58.5635 0 0
0.00059 -0.04147842608 2.362435193e-06 0 -0.06373268 0 0 -94.864 0 0
0.0006 -0.04147906924 2.362435193e-06 0 -0.0649 0 0 -140.174 0 0
0.00061 -0.04147972643 2.362435193e-06 0 -0.06653616 0 0 -165.19 0 0
0.00062 -0.04148040013 2.362435193e-06 0 -0.0682038 0 0 -140.6105 0 0
0.00063 -0.04148108789 2.362435193e-06 0 -0.06934837 0 0 -60.5745 0 0
0.00064 -0.0414817817 2.362435193e-06 0 -0.06941529 0 0 74.9185 0 0
0.00065 -0.04148246803 2.362435193e-06 0 -0.06785 0 0 244.8825 0 0
0.00066 -0.04148312987 2.362435193e-06 0 -0.06451764 0 0 344.3905 0 0
0.00067 -0.04148375727 2.362435193e-06 0 -0.06096219 0 0 268.516 0 0
0.00068 -0.04148435782 2.362435193e-06 0 -0.05914732 0 0 -3.726 0 0
0.00069 -0.04148495874 2.362435193e-06 0 -0.06103671 0 0 -472.3355 0 0
0.0007 -0.04148560689 2.362435193e-06 0 -0.06859403 0 0 -1104.716 0 0
0.00071 -0.04148636551 2.362435193e-06 0 -0.08313103 0 0 -1737.8835 0 0
0.00072 -0.04148729793 2.362435193e-06 0 -0.1033517 0 0 -2208.8485 0 0
0.00073 -0.04148845123 2.362435193e-06 0 -0.127308 0 0 -2485.02 0 0
0.00074 -0.04148985303 2.362435193e-06 0 -0.1530521 0 0 -2566.4 0 0
0.00075 -0.04149151147 2.362435193e-06 0 -0.178636 0 0 -2473.56 0 0
0.00076 -0.04149341726 2.362435193e-06 0 -0.2025233 0 0 -2309.425 0 0
0.00077 -0.041495554 2.362435193e-06 0 -0.2248245 0 0 -2176.9 0 0
0.00078 -0.04149790843 2.362435193e-06 0 -0.2460613 0 0 -2096.565 0 0
0.00079 -0.04150047252 2.362435193e-06 0 -0.2667558 0 0 -2068.435 0 0
0.0008 -0.04150324345 2.362435193e-06 0 -0.28743 0 0 -2086.985 0 0
0.00081 -0.04150622307 2.362435193e-06 0 -0.3084955 0 0 -2124.63 0 0
0.00082 -0.04150941516 2.362435193e-06 0 -0.3299226 0 0 -2153.81 0 0
0.00083 -0.04151282264 2.362435193e-06 0 -0.3515717 0 0 -2169.01 0 0
0.00084 -0.04151644701 2.362435193e-06 0 -0.3733028 0 0 -2170.215 0 0
0.00085 -0.0415202884 2.362435193e-06 0 -0.394976 0 0 -2158.915 0 0
0.00086 -0.04152434569 2.362435193e-06 0 -0.4164811 0 0 -2142.5 0 0
0.00087 -0.04152861722 2.362435193e-06 0 -0.437826 0 0 -2128.35 0 0
0.00088 -0.04153310159 2.362435193e-06 0 -0.4590481 0 0 -2117.945 0 0
0.00089 -0.04153779776 2.362435193e-06 0 -0.4801849 0 0 -2111.295 0 0
0.0009 -0.04154270505 2.362435193e-06 0 -0.501274 0 0 -2107.995 0 0
0.00091 -0.04154782315 2.362435193e-06 0 -0.5223448 0 0 -2106.065 0 0
0.00092 -0.04155315185 2.362435193e-06 0 -0.5433953 0 0 -2103.525 0 0
0.00093 -0.0415586909 2.362435193e-06 0 -0.5644153 0 0 -2099.98 0 0
0.00094 -0.04156443995 2.362435193e-06 0 -0.5853949 0 0 -2095.435 0 0
0.00095 -0.04157039855 2.362435193e-06 0 -0.606324 0 0 -2089.99 0 0
0.00096 -0.04157656614 2.362435193e-06 0 -0.6271947 0 0 -2084.18 0 0
0.00097 -0.04158294215 2.362435193e-06 0 -0.6480076 0 0 -2078.53 0 0
0.00098 -0.04158952602 2.362435193e-06 0 -0.6687653 0 0 -2073.145 0 0
0.00099 -0.0415963172 2.362435193e-06 0 -0.6894705 0 0 -2068.035 0 0
0.001 -0.04160331518 2.362435193e-06 0 -0.710126 0 0 -2063.165 0 0
0.00101 -0.04161051948 2.362435193e-06 0 -0.7307338 0 0 -2058.395 0 0
0.00102 -0.04161792962 2.362435193e-06 0 -0.7512939 0 0 -2053.58 0 0
0.00103 -0.04162554511 2.362435193e-06 0 -0.7718054 0 0 -2048.69 0 0
0.00104 -0.04163336548 2.362435193e-06 0 -0.7922677 0 0 -2043.73 0 0
0.00105 -0.04164139022 2.362435193e-06 0 -0.81268 0 0 -2038.705 0 0
0.00106 -0.04164961882 2.362435193e-06 0 -0.8330418 0 0 -2033.655 0 0
0.00107 -0.0416580508 2.362435193e-06 0 -0.8533531 0 0 -2028.615 0 0
0.00108 -0.04166668564 2.362435193e-06 0 -0.8736141 0 0 -2023.595 0 0
0.00109 -0.04167552283 2.362435193e-06 0 -0.893825 0 0 -2018.595 0 0
0.0011 -0.04168456189 2.362435193e-06 0 -0.913986 0 0 -2013.61 0 0
0.00111 -0.0416938023 2.362435193e-06 0 -0.9340972 0 0 -2008.635 0 0
0.00112 -0.04170324358 2.362435193e-06 0 -0.9541587 0 0 -2003.66 0 0
0.00113 -0.04171288523 2.362435193e-06 0 -0.9741704 0 0 -1998.67 0 0
0.00114 -0.04172272674 2.362435193e-06 0 -0.9941321 0 0 -1993.68 0 0
0.00115 -0.04173276762 2.362435193e-06 0 -1.014044 0 0 -1988.695 0 0
0.00116 -0.04174300737 2.362435193e-06 0 -1.033906 0 0 -1983.7 0 0
0.00117 -0.04175344549 2.362435193e-06 0 -1.053718 0 0 -1978.7 0 0
0.00118 -0.04176408148 2.362435193e-06 0 -1.07348 0 0 -1973.7 0 0
0.00119 -0.04177491484 2.362435193e-06 0 -1.093192 0 0 -1968.7 0 0
0.0012 -0.04178594507 2.362435193e-06 0 -1.112854 0 0 -1963.7 0 0
0.00121 -0.04179717167 2.362435193e-06 0 -1.132466 0 0 -1958.75 0 0
0.00122 -0.04180859414 2.362435193e-06 0 -1.152029 0 0 -1953.75 0 0
0.00123 -0.04182021199 2.362435193e-06 0 -1.171541 0 0 -1948.7 0 0
0.00124 -0.04183202471 2.362435193e-06 0 -1.191003 0 0 -1943.75 0 0
0.00125 -0.04184403181 2.362435193e-06 0 -1.210416 0 0 -1938.8 0 0
0.00126 -0.04185623278 2.362435193e-06 0 -1.229779 0 0 -1933.75 0 0
0.00127 -0.04186862713 2.362435193e-06 0 -1.249091 0 0 -1928.75 0 0
0.00128 -0.04188121436 2.362435193e-06 0 -1.268354 0 0 -1923.8 0 0
0.00129 -0.04189399396 2.362435193e-06 0 -1.287567 0 0 -1918.8 0 0
0.0013 -0.04190696545 2.362435193e-06 0 -1.30673 0 0 -1913.8 0 0
0.00131 -0.04192012831 2.362435193e-06 0 -1.325843 0 0 -1908.8 0 0
0.00132 -0.04193348206 2.362435193e-06 0 -1.344906 0 0 -1903.8 0 0
0.00133 -0.04194702618 2.362435193e-06 0 -1.363919 0 0 -1898.85 0 0
0.00134 -0.04196076019 2.362435193e-06 0 -1.382883 0 0 -1893.85 0 0
0.00135 -0.04197468359 2.362435193e-06 0 -1.401796 0 0 -1888.8 0 0
0.00136 -0.04198879586 2.362435193e-06 0 -1.420659 0 0 -1883.85 0 0
0.00137 -0.04200309652 2.362435193e-06 0 -1.439473 0 0 -1878.9 0 0
0.00138 -0.04201758507 2.362435193e-06 0 -1.458237 0 0 -1873.85 0 0
0.00139 -0.04203226101 2.362435193e-06 0 -1.47695 0 0 -1868.85 0 0
0.0014 -0.04204712383 2.362435193e-06 0 -1.495614 0 0 -1863.9 0 0
0.00141 -0.04206217304 2.362435193e-06 0 -1.514228 0 0 -1858.9 0 0
0.00142 -0.04207740814 2.362435193e-06 0 -1.532792 0 0 -1853.9 0 0
0.00143 -0.04209282863 2.362435193e-06 0 -1.551306 0 0 -1848.9 0 0
0.00144 -0.04210843401 2.362435193e-06 0 -1.56977 0 0 -1843.9 0 0
0.00145 -0.04212422378 2.362435193e-06 0 -1.588184 0 0 -1838.9 0 0
0.00146 -0.04214019744 2.362435193e-06 0 -1.606548 0 0 -1833.95 0 0
0.00147 -0.04215635449 2.362435193e-06 0 -1.624863 0 0 -1828.95 0 0
0.00148 -0.04217269444 2.362435193e-06 0 -1.643127 0 0 -1823.9 0 0
0.00149 -0.04218921678 2.362435193e-06 0 -1.661341 0 0 -1818.95 0 0
0.0015 -0.04220592102 2.362435193e-06 0 -1.679506 0 0 -1814 0 0
0.00151 -0.04222280665 2.362435193e-06 0 -1.697621 0 0 -1808.95 0 0
0.00152 -0.04223987318 2.362435193e-06 0 -1.715685 0 0 -1803.95 0 0
0.00153 -0.04225712011 2.362435193e-06 0 -1.7337 0 0 -1799 0 0
0.00154 -0.04227454693 2.362435193e-06 0 -1.751665 0 0 -1794 0 0
0.00155 -0.04229215316 2.362435193e-06 0 -1.76958 0 0 -1789 0 0
0.00156 -0.04230993828 2.362435193e-06 0 -1.787445 0 0 -1784 0 0
0.00157 -0.04232790181 2.362435193e-06 0 -1.80526 0 0 -1779 0 0
0.00158 -0.04234604323 2.362435193e-06 0 -1.823025 0 0 -1774.05 0 0
0.00159 -0.04236436206 2.362435193e-06 0 -1.840741 0 0 -1769.05 0 0
0.0016 -0.0423828578 2.362435193e-06 0 -1.858406 0 0 -1764 0 0
0.00161 -0.04240152993 2.362435193e-06 0 -1.876021 0 0 -1759.05 0 0
0.00162 -0.04242037797 2.362435193e-06 0 -1.893587 0 0 -1754.1 0 0
0.00163 -0.04243940142 2.362435193e-06 0 -1.911103 0 0 -1749.05 0 0
0.00164 -0.04245859978 2.362435193e-06 0 -1.928568 0 0 -1744.05 0 0
0.00165 -0.04247797254 2.362435193e-06 0 -1.945984 0 0 -1739.1 0 0
0.00166 -0.04249751921 2.362435193e-06 0 -1.96335 0 0 -1734.1 0 0
0.00167 -0.04251723929 2.362435193e-06 0 -1.980666 0 0 -1729.1 0 0
0.00168 -0.04253713228 2.362435193e-06 0 -1.997932 0 0 -1724.1 0 0
0.00169 -0.04255719768 2.362435193e-06 0 -2.015148 0 0 -1719.1 0 0
0.0017 -0.04257743499 2.362435193e-06 0 -2.032314 0 0 -1714.1 0 0
0.00171 -0.04259784371 2.362435193e-06 0 -2.04943 0 0 -1709.15 0 0
0.00172 -0.04261842334 2.362435193e-06 0 -2.066497 0 0 -1704.15 0 0
0.00173 -0.04263917339 2.362435193e-06 0 -2.083513 0 0 -1699.1 0 0
0.00174 -0.04266009335 2.362435193e-06 0 -2.100479 0 0 -1694.15 0 0
0.00175 -0.04268118273 2.362435193e-06 0 -2.117396 0 0 -1689.2 0 0
0.00176 -0.04270244102 2.362435193e-06 0 -2.134263 0 0 -1684.15 0 0
0.00177 -0.04272386773 2.362435193e-06 0 -2.151079 0 0 -1679.15 0 0
0.00178 -0.04274546236 2.362435193e-06 0 -2.167846 0 0 -1674.2 0 0
0.00179 -0.0427672244 2.362435193e-06 0 -2.184563 0 0 -1669.2 0 0
0.0018 -0.04278915337 2.362435193e-06 0 -2.20123 0 0 -1664.2 0 0
0.00181 -0.04281124875 2.362435193e-06 0 -2.217847 0 0 -1659.2 0 0
0.00182 -0.04283351006 2.362435193e-06 0 -2.234414 0 0 -1654.2 0 0
0.00183 -0.04285593678 2.362435193e-06 0 -2.250931 0 0 -1649.25 0 0
0.00184 -0.04287852843 2.362435193e-06 0 -2.267399 0 0 -1644.25 0 0
0.00185 -0.04290128451 2.362435193e-06 0 -2.283816 0 0 -1639.2 0 0
0.00186 -0.0429242045 2.362435193e-06 0 -2.300183 0 0 -1634.25 0 0
0.00187 -0.04294728792 2.362435193e-06 0 -2.316501 0 0 -1629.3 0 0
0.00188 -0.04297053427 2.362435193e-06 0 -2.332769 0 0 -1624.25 0 0
0.00189 -0.04299394305 2.362435193e-06 0 -2.348986 0 0 -1619.25 0 0
0.0019 -0.04301751375 2.362435193e-06 0 -2.365154 0 0 -1614.3 0 0
0.00191 -0.04304124588 2.362435193e-06 0 -2.381272 0 0 -1609.3 0 0
0.00192 -0.04306513894 2.362435193e-06 0 -2.39734 0 0 -1604.3 0 0
0.00193 -0.04308919243 2.362435193e-06 0 -2.413358 0 0 -1599.3 0 0
0.00194 -0.04311340585 2.362435193e-06 0 -2.429326 0 0 -1594.3 0 0
0.00195 -0.0431377787 2.362435193e-06 0 -2.445244 0 0 -1589.3 0 0
0.00196 -0.04316231048 2.362435193e-06 0 -2.461112 0 0 -1584.35 0 0
0.00197 -0.04318700069 2.362435193e-06 0 -2.476931 0 0 -1579.35 0 0
0.00198 -0.04321184884 2.362435193e-06 0 -2.492699 0 0 -1574.3 0 0
0.00199 -0.04323685442 2.362435193e-06 0 -2.508417 0 0 -1569.35 0 0
0.002 -0.04326201694 2.362435193e-06 0 -2.524086 0 0 -1564.4 0 0
0.00201 -0.04328733589 2.362435193e-06 0 -2.539705 0 0 -1559.35 0 0
0.00202 -0.04331281078 2.362435193e-06 0 -2.555273 0 0 -1554.35 0 0
0.00203 -0.04333844111 2.362435193e-06 0 -2.570792 0 0 -1549.4 0 0
0.00204 -0.04336422637 2.362435193e-06 0 -2.586261 0 0 -1544.4 0 0
0.00205 -0.04339016608 2.362435193e-06 0 -2.60168 0 0 -1539.4 0 0
0.00206 -0.04341625972 2.362435193e-06 0 -2.617049 0 0 -1534.4 0 0
0.00207 -0.04344250681 2.362435193e-06 0 -2.632368 0 0 -1529.4 0 0
0.00208 -0.04346890683 2.362435193e-06 0 -2.647637 0 0 -1524.45 0 0
0.00209 -0.0434954593 2.362435193e-06 0 -2.662857 0 0 -1519.45 0 0
0.0021 -0.04352216372 2.362435193e-06 0 -2.678026 0 0 -1514.4 0 0
0.00211 -0.04354901957 2.362435193e-06 0 -2.693145 0 0 -1509.45 0 0
0.00212 -0.04357602637 2.362435193e-06 0 -2.708215 0 0 -1504.5 0 0
0.00213 -0.04360318362 2.362435193e-06 0 -2.723235 0 0 -1499.45 0 0
0.00214 -0.04363049082 2.362435193e-06 0 -2.738204 0 0 -1494.45 0 0
0.00215 -0.04365794746 2.362435193e-06 0 -2.753124 0 0 -1489.5 0 0
0.00216 -0.04368555305 2.362435193e-06 0 -2.767994 0 0 -1484.5 0 0
0.00217 -0.04371330709 2.362435193e-06 0 -2.782814 0 0 -1479.5 0 0
0.00218 -0.04374120908 2.362435193e-06 0 -2.797584 0 0 -1474.5 0 0
0.00219 -0.04376925852 2.362435193e-06 0 -2.812304 0 0 -1469.5 0 0
0.0022 -0.04379745491 2.362435193e-06 0 -2.826974 0 0 -1464.5 0 0
0.00221 -0.04382579775 2.362435193e-06 0 -2.841594 0 0 -1459.55 0 0
0.00222 -0.04385428654 2.362435193e-06 0 -2.856165 0 0 -1454.55 0 0
0.00223 -0.04388292079 2.362435193e-06 0 -2.870685 0 0 -1449.5 0 0
0.00224 -0.04391169999 2.362435193e-06 0 -2.885155 0 0 -1444.55 0 0
0.00225 -0.04394062365 2.362435193e-06 0 -2.899576 0 0 -1439.6 0 0
0.00226 -0.04396969126 2.362435193e-06 0 -2.913947 0 0 -1434.55 0 0
0.00227 -0.04399890233 2.362435193e-06 0 -2.928267 0 0 -1429.55 0 0
0.00228 -0.04402825636 2.362435193e-06 0 -2.942538 0 0 -1424.6 0 0
0.00229 -0.04405775284 2.362435193e-06 0 -2.956759 0 0 -1419.6 0 0
0.0023 -0.04408739129 2.362435193e-06 0 -2.97093 0 0 -1414.6 0 0
0.00231 -0.04411717119 2.362435193e-06 0 -2.985051 0 0 -1409.6 0 0
0.00232 -0.04414709206 2.362435193e-06 0 -2.999122 0 0 -1404.6 0 0
0.00233 -0.04417715338 2.362435193e-06 0 -3.013143 0 0 -1399.65 0 0
0.00234 -0.04420735467 2.362435193e-06 0 -3.027115 0 0 -1394.65 0 0
0.00235 -0.04423769543 2.362435193e-06 0 -3.041036 0 0 -1389.6 0 0
0.00236 -0.04426817514 2.362435193e-06 0 -3.054907 0 0 -1384.65 0 0
0.00237 -0.04429879332 2.362435193e-06 0 -3.068729 0 0 -1379.7 0 0
0.00238 -0.04432954947 2.362435193e-06 0 -3.082501 0 0 -1374.65 0 0
0.00239 -0.04436044309 2.362435193e-06 0 -3.096222 0 0 -1369.65 0 0
0.0024 -0.04439147367 2.362435193e-06 0 -3.109894 0 0 -1364.7 0 0
0.00241 -0.04442264072 2.362435193e-06 0 -3.123516 0 0 -1359.7 0 0
0.00242 -0.04445394374 2.362435193e-06 0 -3.137088 0 0 -1354.7 0 0
0.00243 -0.04448538223 2.362435193e-06 0 -3.15061 0 0 -1349.7 0 0
0.00244 -0.04451695569 2.362435193e-06 0 -3.164082 0 0 -1344.7 0 0
0.00245 -0.04454866362 2.362435193e-06 0 -3.177504 0 0 -1339.7 0 0
0.00246 -0.04458050552 2.362435193e-06 0 -3.190876 0 0 -1334.75 0 0
0.00247 -0.04461248089 2.362435193e-06 0 -3.204199 0 0 -1329.75 0 0
0.00248 -0.04464458924 2.362435193e-06 0 -3.217471 0 0 -1324.7 0 0
0.00249 -0.04467683006 2.362435193e-06 0 -3.230693 0 0 -1319.75 0 0
0.0025 -0.04470920286 2.362435193e-06 0 -3.243866 0 0 -1314.75 0 0
0.00251 -0.04474170713 2.362435193e-06 0 -3.256988 0 0 -1309.45 0 0
0.00252 -0.04477434234 2.362435193e-06 0 -3.270055 0 0 -1303.75 0 0
0.00253 -0.04480710793 2.362435193e-06 0 -3.283063 0 0 -1297.55 0 0
0.00254 -0.04484000328 2.362435193e-06 0 -3.296006 0 0 -1290.85 0 0
0.00255 -0.04487302771 2.362435193e-06 0 -3.30888 0 0 -1283.75 0 0
0.00256 -0.04490618051 2.362435193e-06 0 -3.321681 0 0 -1276.5 0 0
0.00257 -0.04493946097 2.362435193e-06 0 -3.33441 0 0 -1269.35 0 0
0.00258 -0.04497286836 2.362435193e-06 0 -3.347068 0 0 -1262.35 0 0
0.00259 -0.04500640198 2.362435193e-06 0 -3.359657 0 0 -1255.5 0 0
0.0026 -0.04504006116 2.362435193e-06 0 -3.372178 0 0 -1248.8 0 0
0.00261 -0.04507384521 2.362435193e-06 0 -3.384633 0 0 -1242.25 0 0
0.00262 -0.04510775349 2.362435193e-06 0 -3.397023 0 0 -1235.65 0 0
0.00263 -0.04514178534 2.362435193e-06 0 -3.409346 0 0 -1229 0 0
0.00264 -0.04517594008 2.362435193e-06 0 -3.421603 0 0 -1222.45 0 0
0.00265 -0.04521021707 2.362435193e-06 0 -3.433795 0 0 -1215.9 0 0
0.00266 -0.04524461565 2.362435193e-06 0 -3.445921 0 0 -1209.25 0 0
0.00267 -0.04527913516 2.362435193e-06 0 -3.45798 0 0 -1202.65 0 0
0.00268 -0.04531377493 2.362435193e-06 0 -3.469974 0 0 -1196.05 0 0
0.00269 -0.0453485343 2.362435193e-06 0 -3.481901 0 0 -1189.45 0 0
0.0027 -0.04538341262 2.362435193e-06 0 -3.493763 0 0 -1182.9 0 0
0.00271 -0.04541840923 2.362435193e-06 0 -3.505559 0 0 -1176.25 0 0
0.00272 -0.04545352347 2.362435193e-06 0 -3.517288 0 0 -1169.65 0 0
0.00273 -0.04548875467 2.362435193e-06 0 -3.528952 0 0 -1163.1 0 0
0.00274 -0.04552410218 2.362435193e-06 0 -3.54055 0 0 -1156.5 0 0
0.00275 -0.04555956534 2.362435193e-06 0 -3.552082 0 0 -1149.9 0 0
0.00276 -0.04559514349 2.362435193e-06 0 -3.563548 0 0 -1143.3 0 0
0.00277 -0.04563083597 2.362435193e-06 0 -3.574948 0 0 -1136.7 0 0
0.00278 -0.04566664212 2.362435193e-06 0 -3.586282 0 0 -1130.15 0 0
0.00279 -0.04570256128 2.362435193e-06 0 -3.597551 0 0 -1123.55 0 0
0.0028 -0.0457385928 2.362435193e-06 0 -3.608753 0 0 -1116.9 0 0
0.00281 -0.04577473601 2.362435193e-06 0 -3.619889 0 0 -1110.35 0 0
0.00282 -0.04581099026 2.362435193e-06 0 -3.63096 0 0 -1103.8 0 0
0.00283 -0.04584735488 2.362435193e-06 0 -3.641965 0 0 -1097.15 0 0
0.00284 -0.04588382922 2.362435193e-06 0 -3.652903 0 0 -1090.55 0 0
0.00285 -0.04592041262 2.362435193e-06 0 -3.663776 0 0 -1084 0 0
0.00286 -0.04595710441 2.362435193e-06 0 -3.674583 0 0 -1077.35 0 0
0.00287 -0.04599390394 2.362435193e-06 0 -3.685323 0 0 -1070.75 0 0
0.00288 -0.04603081055 2.362435193e-06 0 -3.695998 0 0 -1064.2 0 0
0.00289 -0.04606782357 2.362435193e-06 0 -3.706607 0 0 -1057.6 0 0
0.0029 -0.04610494236 2.362435193e-06 0 -3.71715 0 0 -1051 0 0
0.00291 -0.04614216624 2.362435193e-06 0 -3.727627 0 0 -1044.4 0 0
0.00292 -0.04617949457 2.362435193e-06 0 -3.738038 0 0 -1037.8 0 0
0.00293 -0.04621692667 2.362435193e-06 0 -3.748383 0 0 -1031.2 0 0
0.00294 -0.0462544619 2.362435193e-06 0 -3.758662 0 0 -1024.6 0 0
