t px py theta vx vy omega ax ay alpha 
0.0001 0.1886964564 -0.03491630306 -3.47985271e-06 -0.01422776156 -0.01312027326 -0.06953088813 -160.2344227 -147.7525648 -783.0156117
0.0002 0.1886941811 -0.03491840109 -1.459840574e-05 -0.03556903654 -0.03279665966 -0.1738062555 -355.6846229 -327.9037057 -1737.734854
0.0003 0.1886893076 -0.03492289418 -3.840959346e-05 -0.05690919978 -0.05246087206 -0.2780181886 -21.19664117 -19.39243591 -102.7851836
0.0004 0.1886832712 -0.03492845795 -6.789509928e-05 -0.06402109648 -0.05899928619 -0.3126704446 -67.91671439 -62.40295738 -330.7265116
0.0005 0.1886765156 -0.03493468261 -0.0001008831639 -0.07113237243 -0.06553091101 -0.3472873238 -77.87122711 -71.50918914 -378.9921093
0.0006 0.1886690658 -0.03494154449 -0.0001372484949 -0.07824296751 -0.07205509255 -0.3818654185 -168.9650111 -155.3243956 -823.1890197
0.0007 0.1886611842 -0.03494880136 -0.0001757073538 -0.08269351032 -0.07612408348 -0.4034324432 -1331.759038 -1225.649791 -6495.568316
0.0008 0.1886399235 -0.03496836282 -0.0002793776148 -0.3464777979 -0.3186187439 -1.688606304 -2515.178973 -2307.50882 -12229.79622
0.0009 0.1885923602 -0.03501205056 -0.0005109175697 -0.604122766 -0.5542501325 -2.937524776 -2538.856508 -2312.828793 -12259.58998
0.001 0.1885193264 -0.03507893533 -0.0008654184196 -0.8555447515 -0.7821133121 -4.145472208 -2482.37184 -2236.601496 -11857.95998
0.0011 0.1884214636 -0.03516818537 -0.001338495432 -1.100668821 -1.001409747 -5.30828699 -2419.48754 -2147.714838 -11389.8902
0.0012 0.1882994059 -0.03527890773 -0.00192544626 -1.339429026 -1.211453444 -6.422393439 -2355.561605 -2052.153623 -10886.99165
0.0013 0.1881537928 -0.03541014759 -0.002621245926 -1.571768544 -1.411674263 -7.484818958 -2291.125098 -1951.483806 -10357.45391
0.0014 0.1879852688 -0.03556089898 -0.003420602924 -1.797639639 -1.601618052 -8.493194694 -2226.256062 -1846.845491 -9807.210113
0.0015 0.1877944828 -0.03573011626 -0.004318018573 -2.017003458 -1.780944044 -9.445741938 -2161.041893 -1739.351288 -9242.05096
0.0016 0.1875820871 -0.03591672513 -0.00530784463 -2.229829704 -1.949419923 -10.3412464 -2095.446111 -1629.949341 -8666.900397
0.0017 0.1873487365 -0.03611963324 -0.006384338419 -2.436096197 -2.10691499 -11.17902263 -2029.787478 -1519.827667 -8087.962188
0.0018 0.187095088 -0.0363377399 -0.007541713184 -2.635788353 -2.253391944 -11.95887126 -1964.019055 -1409.769372 -7509.301105
0.0019 0.1868217993 -0.03656994498 -0.008774184716 -2.828898608 -2.388897681 -12.68103106 -1898.208039 -1300.568371 -6935.048808
0.002 0.1865295287 -0.03681515686 -0.01007601249 -3.015425812 -2.513553575 -13.34612843 -1832.41546 -1192.919965 -6368.823897
0.0021 0.1862189344 -0.03707229935 -0.0114415357 -3.195374606 -2.627545597 -13.95512593 -1766.576829 -1087.322734 -5813.211018
0.0022 0.1858906737 -0.03734031768 -0.0128652047 -3.368754812 -2.731114556 -14.50927162 -1700.979699 -984.4753048 -5271.867744
0.0023 0.1855454029 -0.03761818352 -0.01434160666 -3.535580833 -2.82454677 -15.01005046 -1635.54755 -884.6881084 -4746.40039
0.0024 0.1851837764 -0.03790489908 -0.01586548736 -3.695871091 -2.908165275 -15.45913867 -1570.317848 -788.2867622 -4238.505352
0.0025 0.1848064468 -0.03819950038 -0.01743176797 -3.849647497 -2.982321761 -15.8583618 -1505.263636 -695.4739881 -3749.23485
0.0026 0.1844140861 -0.03850104299 -0.01903546916 -3.996143682 -3.04678867 -16.20646179 -1421.534785 -592.2334752 -3203.994256
0.0027 0.1840075036 -0.03880851684 -0.02067125709 -4.134130467 -3.101060524 -16.50069415 -1338.269415 -494.0340416 -2684.971566
0.0028 0.1835875384 -0.03912093497 -0.02233391522 -4.263805781 -3.145758373 -16.7443028 -1255.308936 -400.7585247 -2191.547956
0.0029 0.1831550193 -0.0394373652 -0.02401851239 -4.385215275 -3.181385585 -16.93990638 -1172.908461 -312.5816242 -1724.661032
0.003 0.1827107708 -0.03975692533 -0.0257203774 -4.498400358 -3.208438664 -17.09008813 -1090.90548 -229.3245818 -1283.373402
0.0031 0.1822556129 -0.04007878277 -0.02743509726 -4.603410795 -3.227412309 -17.19742336 -1009.369976 -150.9417198 -867.4614685
0.0032 0.1817903608 -0.04040215364 -0.02915851268 -4.700292573 -3.238787333 -17.26441563 -928.3685708 -77.35411279 -476.5290559
0.0033 0.1813158251 -0.04072630161 -0.03088671189 -4.789092332 -3.243031366 -17.29350086 -847.730298 -8.296589709 -109.1906741
0.0034 0.1808328114 -0.04105053648 -0.03261602353 -4.869859452 -3.240598272 -17.28704454 -767.692534 56.23333593 234.5360991
0.0035 0.1803421207 -0.04137421236 -0.03434300723 -4.94264114 -3.231923403 -17.24731662 -688.0216758 116.5684521 556.3931993
0.0036 0.179844549 -0.04169672628 -0.03606444644 -5.007488079 -3.217426322 -17.17650624 -608.950417 172.7397903 856.5115175
0.0037 0.1793408874 -0.04201751601 -0.03777733731 -5.06444608 -3.197504779 -17.07668963 -530.3007531 225.0516336 1136.479452
0.0038 0.1788319224 -0.04233605833 -0.0394788796 -5.11356411 -3.172539628 -16.94985643 -452.1269013 273.6588545 1397.087782
0.0039 0.1783184356 -0.04265186705 -0.0411664667 -5.154889486 -3.142891647 -16.7978927 -374.4814919 318.719081 1639.141955
0.004 0.177801204 -0.04296449117 -0.04283767585 -5.188468921 -3.108902374 -16.62258533 -297.1837442 360.5299745 1864.196425
0.0041 0.1772809999 -0.04327351275 -0.04449025758 -5.214347264 -3.070893674 -16.4256197 -220.4582141 399.1394188 2072.471399
0.0042 0.176758591 -0.04357854532 -0.04612212704 -5.232570876 -3.029170137 -16.20859233 -144.064609 434.8697581 2265.655592
0.0043 0.1762347406 -0.04387923178 -0.04773135356 -5.243184064 -2.984017454 -15.97300216 -68.22495504 467.7654315 2443.952591
0.0044 0.1757102077 -0.04417524271 -0.04931615171 -5.246229007 -2.93570298 -15.72025334 7.186647176 498.0685671 2608.624983
0.0045 0.1751857468 -0.04446627471 -0.05087487284 -5.241750287 -2.884478865 -15.45167189 82.29624338 526.0114808 2760.884854
0.0046 0.1746621085 -0.04475204857 -0.05240599551 -5.229786755 -2.830578122 -15.1684845 156.8850164 551.6285997 2900.886126
0.0047 0.1741400389 -0.04503230772 -0.05390811764 -5.210379522 -2.774219704 -14.87184549 231.1952639 575.2025864 3030.114104
0.0048 0.1736202807 -0.04530681666 -0.05537994823 -5.183566145 -2.715605923 -14.56282285 305.0101878 596.7610272 3148.689013
0.0049 0.1731035725 -0.04557535941 -0.05682029943 -5.149386296 -2.654926074 -14.24241749 378.5727093 616.5709841 3258.016541
0.005 0.1725906492 -0.0458377381 -0.05822807921 -5.107873684 -2.592352775 -13.91154343 451.4393457 634.5371161 3357.560392
0.0051 0.1720821368 -0.04609382427 -0.05960256705 -5.062871556 -2.529941211 -13.58122407 433.2402057 606.2204457 3208.670717
0.0052 0.1715779847 -0.04634383286 -0.06094488587 -5.020472702 -2.470676455 -13.26749783 414.8763934 579.3737447 3067.4219
0.0053 0.1710779811 -0.04658804675 -0.0622565255 -4.979900413 -2.414024128 -12.96751967 396.6619839 553.9317519 2933.496869
0.0054 0.1705819441 -0.0468267203 -0.06353882478 -4.941137841 -2.359847646 -12.68057718 378.5898384 529.7971733 2806.390621
0.0055 0.1700896934 -0.04706009473 -0.06479305421 -4.904172236 -2.308021333 -12.40601489 360.7102342 506.9089175 2685.79105
0.0056 0.1696010499 -0.04728839912 -0.06602042072 -4.868990332 -2.258427342 -12.14321784 342.9602754 485.1594076 2571.134841
0.0057 0.1691158359 -0.04751185109 -0.0672220716 -4.835580571 -2.210955989 -11.89161353 325.2778464 464.450029 2461.905353
0.0058 0.168633875 -0.04773065768 -0.0683990988 -4.803928529 -2.165502983 -11.65065717 307.714537 444.7405975 2357.898997
0.0059 0.1681549917 -0.04794501587 -0.06955254179 -4.774023672 -2.121971976 -11.41984546 290.3786034 426.0206198 2259.071011
0.006 0.1676790121 -0.04815511322 -0.07068339078 -4.745854788 -2.080271921 -11.19870252 273.0396254 408.1331943 2164.587826
0.0061 0.167205763 -0.04836112853 -0.07179259019 -4.719411086 -2.040317099 -10.98678012 255.8066383 391.0781818 2074.45849
0.0062 0.1667350724 -0.04856323225 -0.07288104077 -4.694682164 -2.002026691 -10.78365544 238.7884363 374.8566369 1988.697989
0.0063 0.1662667695 -0.04876158693 -0.07394960192 -4.671657985 -1.965324386 -10.58892906 221.7562886 359.3286943 1906.561599
0.0064 0.1658006841 -0.04895634775 -0.07499909445 -4.650328847 -1.930138008 -10.40222301 204.819642 344.5033273 1828.105487
0.0065 0.1653366472 -0.04914766289 -0.07603030249 -4.630685359 -1.896399193 -10.22317907 188.0876585 330.3898396 1753.387281
0.0066 0.1648744909 -0.04933567379 -0.07704397489 -4.612718421 -1.864043104 -10.05145734 171.3330771 316.8618987 1681.732922
0.0067 0.1644140477 -0.04952051564 -0.07804082776 -4.596419201 -1.833008142 -9.886734715 154.6656006 303.9348937 1613.231704
0.0068 0.1639551515 -0.04970231758 -0.07902154532 -4.581778002 -1.80323528 -9.728701306 138.1386951 291.6018385 1547.852018
0.0069 0.1634976368 -0.04988120305 -0.07998678199 -4.568788711 -1.774669585 -9.577068754 121.6941532 279.8136604 1485.334782
0.007 0.1630413388 -0.05005729004 -0.08093716353 -4.557442075 -1.747257362 -9.431554827 105.2741002 268.5241361 1425.43581
0.0071 0.1625860937 -0.05023069133 -0.0818732883 -4.547729047 -1.720947323 -9.291889762 88.93248985 257.7322325 1368.154426
0.0072 0.1621317385 -0.05040151474 -0.08279572856 -4.539644105 -1.695691651 -9.15782208 72.77890931 247.4585225 1313.606389
0.0073 0.1616781107 -0.0505698633 -0.08370503138 -4.533177444 -1.671442897 -9.029101808 56.5889118 237.5993162 1261.236154
0.0074 0.161225049 -0.0507358355 -0.0846017199 -4.52832387 -1.648157165 -8.90549777 40.47246234 228.1787149 1211.177892
0.0075 0.1607723923 -0.05089952545 -0.08548629418 -4.525073884 -1.625790687 -8.786779058 24.31714655 219.1396256 1163.126956
0.0076 0.1603198886 -0.05106105565 -0.08635940833 -4.52674164 -1.605475887 -8.679073211 -71.0130613 182.7059034 966.9009156
0.0077 0.1598666996 -0.05122074841 -0.08722279749 -4.538610444 -1.588948965 -8.591780829 -166.263844 148.1624141 780.7003701
0.0078 0.1594118485 -0.05137895785 -0.08807837063 -4.559974581 -1.57577811 -8.522585882 -260.953375 115.5644006 604.845458
0.0079 0.1589543879 -0.05153601021 -0.08892788772 -4.590794605 -1.565776836 -8.470496713 -355.3594193 84.77243091 438.5960061
0.008 0.1584933741 -0.05169221333 -0.08977301072 -4.631032171 -1.558762762 -8.434542512 -449.3701621 55.79334683 282.0016343
0.0081 0.1580278673 -0.05184785686 -0.09061530492 -4.680646519 -1.554555458 -8.413761825 -542.8723559 28.64139259 135.1512657
0.0082 0.1575569319 -0.05200321258 -0.0914562401 -4.739598706 -1.552977018 -8.40720571 -636.08181 3.229457846 -2.415479706
0.0083 0.1570796361 -0.05215853448 -0.09229719133 -4.807847009 -1.553849738 -8.413925231 -728.8815577 -20.41085795 -130.5171293
0.0084 0.1565950525 -0.05231405883 -0.09313943884 -4.885350069 -1.556996467 -8.432973437 -821.153406 -42.24279231 -248.9444795
0.0085 0.1561022574 -0.05247000418 -0.09398416813 -4.972066713 -1.5622399 -8.463401526 -913.1074534 -62.32869048 -358.0253169
0.0086 0.1556003319 -0.05262657124 -0.09483246924 -5.067952515 -1.569400922 -8.504249936 -1004.512644 -80.58527351 -457.2987644
0.0087 0.1550883611 -0.05278394278 -0.09568533597 -5.172964035 -1.578299471 -8.554552979 -1095.575686 -97.06203069 -547.0231657
0.0088 0.1545654349 -0.05294228343 -0.09654366482 -5.287054297 -1.588752691 -8.613328843 -1186.172708 -111.7013202 -626.876216
0.0089 0.1540306476 -0.05310173946 -0.09740825368 -5.410177044 -1.600575874 -8.679584676 -1276.17904 -124.4436919 -696.525324
0.009 0.1534830985 -0.05326243846 -0.09827979984 -5.542282242 -1.613580801 -8.752307541 -1365.796976 -135.3243195 -756.1505262
0.0091 0.1529218919 -0.0534244891 -0.0991588989 -5.683319246 -1.62757643 -8.830468085 -1454.899524 -144.2775465 -805.384624
0.0092 0.1523461371 -0.05358798075 -0.1000460423 -5.833236699 -1.642368645 -8.913019159 -1543.359205 -151.2377493 -843.8597854
0.0093 0.1517549488 -0.0537529832 -0.1009416157 -5.991979163 -1.657759135 -8.998889627 -1631.374597 -156.2305232 -871.7024248
0.0094 0.1511474473 -0.05391954624 -0.1018458969 -6.159491395 -1.673546501 -9.08699032 -1718.816398 -159.1869985 -888.5255959
0.0095 0.1505227586 -0.0540876993 -0.1027590533 -6.335713919 -1.689524958 -9.176206883 -1805.555204 -160.0401633 -893.9513757
0.0096 0.1498800147 -0.05425745105 -0.10368114 -6.520586224 -1.705485194 -9.265404374 -1891.786613 -158.8100171 -888.0734698
0.0097 0.1492183535 -0.05442878906 -0.1046120974 -6.714046701 -1.721214324 -9.353426918 -1977.325779 -155.4146876 -870.4313876
0.0098 0.1485369196 -0.0546016794 -0.1055517491 -6.916030421 -1.736495354 -9.439094679 -2062.204452 -149.8307076 -840.8808688
0.0099 0.1478348641 -0.05477606621 -0.1064997998 -7.126469114 -1.751107268 -9.521204244 -2146.453774 -142.0342309 -799.2746945
0.01 0.1471113448 -0.05495187142 -0.1074558325 -7.345293292 -1.764825651 -9.598531928 -2229.457874 -131.8456739 -744.6177521
0.0101 0.146365764 -0.05512893865 -0.1084190044 -7.563871986 -1.775426726 -9.658974007 -2107.609026 -72.41103097 -421.9240534
0.0102 0.1455990438 -0.05530674729 -0.1093864892 -7.768518426 -1.779804761 -9.685607132 -1985.554746 -15.63136998 -113.3000247
0.0103 0.1448124674 -0.0554847146 -0.1103551196 -7.961007001 -1.778645564 -9.68212606 -1864.253976 38.36687846 180.5379214
0.0104 0.1440072475 -0.05566230068 -0.1113219576 -8.141397724 -1.772227101 -9.650009389 -1743.635642 89.53621857 459.3120552
0.0105 0.1431845908 -0.05583899379 -0.1122842154 -8.309756201 -1.760834096 -9.590774562 -1623.678318 137.8366737 722.7824516
0.0106 0.142345697 -0.05601431089 -0.1132392578 -8.466148917 -1.744755078 -9.505962106 -1504.356769 183.2457886 970.802032
0.0107 0.1414917594 -0.05618779793 -0.114184605 -8.610646033 -1.724281275 -9.397129841 -1385.748583 225.7356776 1203.19205
0.0108 0.1406239637 -0.05635903003 -0.1151179333 -8.743320987 -1.699704973 -9.265844111 -1267.873937 265.3054278 1419.919127
0.0109 0.1397434887 -0.05652761152 -0.1160370755 -8.864246922 -1.671317451 -9.113668673 -1150.749421 301.9672571 1621.020424
0.011 0.1388515053 -0.05669317579 -0.1169400207 -8.973499531 -1.639408372 -8.942161448 -1034.388124 335.7452385 1806.597156
0.0111 0.1379491771 -0.05685538505 -0.1178249132 -9.071156705 -1.60426466 -8.752868434 -918.7998163 366.6737542 1976.806614
0.0112 0.1370376598 -0.05701393 -0.1186900507 -9.157295042 -1.566168977 -8.547315399 -804.0968583 394.7776245 2131.75415
0.0113 0.1361181013 -0.0571685294 -0.1195338827 -9.231992722 -1.525399495 -8.327006605 -690.0716029 420.1441159 2271.886475
0.0114 0.1351916418 -0.05731892958 -0.1203550078 -9.295329218 -1.482229187 -8.093420819 -576.8308402 442.8114583 2397.383647
0.0115 0.1342594135 -0.05746490382 -0.121152171 -9.347381865 -1.436924718 -7.848005216 -464.3730374 462.8416226 2508.556453
0.0116 0.1333225407 -0.05760625179 -0.1219242602 -9.388229822 -1.389746655 -7.59217634 -352.6941541 480.3011999 2605.74231
0.0117 0.1323821403 -0.05774279888 -0.1226703037 -9.417949631 -1.340948409 -7.327314218 -241.7879392 495.2600909 2689.298305
0.0118 0.131439321 -0.05787439543 -0.1233894654 -9.436618153 -1.290776416 -7.054763157 -131.6459641 507.7911841 2759.599589
0.0119 0.1304951843 -0.05800091609 -0.1240810422 -9.444312343 -1.239469835 -6.775829928 -22.30993059 517.962897 2816.998717
0.012 0.1295508238 -0.05812225904 -0.1247444595 -9.441105932 -1.187259939 -6.491780233 86.28478407 525.8594377 2861.936501
0.0121 0.1286073259 -0.05823834519 -0.1253792673 -9.427072376 -1.134370388 -6.203840012 194.2042343 531.5652551 2894.857093
0.0122 0.1276657697 -0.05834911745 -0.1259851362 -9.40228468 -1.081017093 -5.913194494 301.411989 535.1527885 2916.140993
0.0123 0.126727227 -0.05845453988 -0.126561853 -9.366812121 -1.02740776 -5.620985502 407.9252523 536.7017775 2926.210638
0.0124 0.1257927629 -0.05855459694 -0.1271093168 -9.320723224 -0.973742221 -5.328313065 513.7627004 536.2925519 2925.493689
0.0125 0.1248634358 -0.05864929266 -0.1276275344 -9.264085608 -0.9202123548 -5.036234782 618.6861545 533.9802137 2914.281694
0.0126 0.1239401816 -0.05873866077 -0.128116676 -9.201133359 -0.8673891089 -4.747884189 623.5424689 520.9181821 2844.135869
0.0127 0.1230231931 -0.05882281644 -0.1285773585 -9.138561928 -0.8159361556 -4.466904921 628.0338819 508.2028215 2775.769693
0.0128 0.1221124846 -0.05890188987 -0.1290102822 -9.075532091 -0.7657396729 -4.192685349 632.5971033 495.775576 2708.870788
0.0129 0.1212081021 -0.05897600532 -0.1294161161 -9.012041852 -0.7167721049 -3.925085303 637.1801678 483.6169569 2643.338737
0.013 0.1203100918 -0.05904528437 -0.1297955154 -8.948089255 -0.6690073143 -3.663971768 641.8339505 471.717022 2579.125091
0.0131 0.1194184999 -0.05910984604 -0.1301491224 -8.883672379 -0.6224205014 -3.409218468 646.5067288 460.0584695 2516.140816
0.0132 0.118533373 -0.05916980694 -0.1304775671 -8.818789332 -0.5769881255 -3.160705463 651.1471285 448.6257312 2454.306098
0.0133 0.1176547577 -0.0592252814 -0.1307814677 -8.75343927 -0.5326878927 -2.918319109 655.8571625 437.4142865 2393.601387
0.0134 0.1167827009 -0.05927638154 -0.1310614314 -8.687618315 -0.4894984462 -2.681950389 660.534446 426.4065971 2333.93559
0.0135 0.1159172498 -0.05932321744 -0.1313180549 -8.621326685 -0.4473997314 -2.451496927 665.2807722 415.5985264 2275.290807
0.0136 0.1150584515 -0.0593658972 -0.1315519247 -8.554561566 -0.4063725181 -2.226860404 670.0449237 404.9771454 2217.600758
0.0137 0.1142063535 -0.05940452704 -0.1317636177 -8.487321175 -0.366398582 -2.00794756 674.8267433 394.5332495 2160.819366
0.0138 0.1133610034 -0.05943921143 -0.131953702 -8.419603748 -0.3274605963 -1.794669633 679.5248121 384.2541897 2104.881486
0.0139 0.1125224489 -0.05947005313 -0.1321227366 -8.351407531 -0.2895420816 -1.586942092 684.3417213 374.1400311 2049.791473
0.014 0.111690738 -0.0594971533 -0.1322712727 -8.282730781 -0.2526273602 -1.384684411 689.1759487 364.1785866 1995.486359
0.0141 0.1108659189 -0.05952061157 -0.1323998533 -8.213572774 -0.2167015442 -1.187820017 694.0274425 354.362543 1941.929726
0.0142 0.1100480398 -0.0595405261 -0.132509014 -8.143929765 -0.1817503821 -0.9962754671 698.8457192 344.6836007 1889.079591
0.0143 0.1092371493 -0.05955699368 -0.1325992834 -8.07380205 -0.1477604085 -0.8099812832 703.6812857 335.1368148 1836.91221
0.0144 0.1084332958 -0.05957010978 -0.132671183 -8.003186902 -0.1147187301 -0.6288707958 708.5843158 325.7165202 1785.399748
0.0145 0.1076365283 -0.05957996862 -0.1327252282 -7.932082608 -0.08261309542 -0.4528805366 713.5044254 316.4156296 1734.506439
0.0146 0.1068468958 -0.05958666321 -0.1327619278 -7.860487455 -0.05143183325 -0.2819499178 718.4416109 307.2284928 1684.204261
0.0147 0.1060644474 -0.05959028543 -0.1327817849 -7.788399729 -0.02116382319 -0.1160210814 723.3458373 298.1496215 1634.465954
0.0148 0.1052892324 -0.05959092607 -0.1327852969 -7.715817717 0.008201534696 0.04496125337 728.2672942 289.1744611 1585.269255
0.0149 0.1045213005 -0.05958867487 -0.1327729558 -7.642740699 0.0366743528 0.2010499598 733.2559586 280.2980395 1536.589497
0.015 0.1037607011 -0.05958362063 -0.1327452483 -7.569164956 0.06426426475 0.3522955395 738.1620589 271.5163791 1488.407351
0.0151 0.1030074506 -0.05957585074 -0.1327026542 -7.496301561 0.09099639482 0.4988336544 714.2286827 263.2631993 1443.102763
0.0152 0.1022613515 -0.05956544788 -0.1326456273 -7.426074718 0.1169317959 0.6409971397 690.3031473 255.5265721 1400.612321
0.0153 0.1015221559 -0.05955248936 -0.132574592 -7.358229065 0.142117607 0.7790427421 666.6239903 248.2681283 1360.727434
0.0154 0.1007896264 -0.05953704776 -0.1324899474 -7.292749143 0.1666009534 0.9132272951 643.0375128 241.4736941 1323.371923
0.0155 0.1000635272 -0.05951919105 -0.1323920669 -7.229621914 0.1904274036 1.04379924 619.5396697 235.1284239 1288.465726
0.0156 0.09934362383 -0.0594989827 -0.1322812999 -7.168831778 0.2136409566 1.170998538 596.2255784 229.2152582 1255.916459
0.0157 0.09862968301 -0.05947648185 -0.1321579718 -7.110367498 0.2362843141 1.295058143 573.0418008 223.7218886 1225.657612
0.0158 0.09792147298 -0.05945174346 -0.1320223853 -7.054214249 0.258398742 1.416203225 549.9846218 218.635455 1197.619495
0.0159 0.09721876313 -0.05942481838 -0.1318748209 -7.000361523 0.2800244088 1.534653014 527.050587 213.9441713 1171.738158
